Time,FHR
0.0,1.0
0.002,1.2
0.004,0.0
0.006,0.2
0.008,-1.2
0.01,-0.2
0.012,-4.8
0.014,-6.4
0.016,-4.2
0.018000000000000002,-4.4
0.02,-2.4
0.022,4.0
0.024,5.0
0.026000000000000002,-3.8
0.028,-5.0
0.03,-1.6
0.032,-1.2
0.034,-0.8
0.036000000000000004,-2.4
0.038,3.8
0.04,3.0
0.042,-1.8
0.044,0.8
0.046,1.2
0.048,-2.2
0.05,4.0
0.052000000000000005,5.4
0.054,3.2
0.056,-4.0
0.058,1.6
0.06,0.0
0.062,-5.6
0.064,-5.0
0.066,-4.4
0.068,-0.6
0.07,-2.8
0.07200000000000001,-5.4
0.074,-0.4
0.076,-3.8
0.078,-11.4
0.08,-4.0
0.082,5.2
0.084,4.2
0.08600000000000001,-0.4
0.088,-2.6
0.09,-1.4
0.092,-2.0
0.094,0.6
0.096,4.6
0.098,2.2
0.1,-1.8
0.10200000000000001,-3.6
0.10400000000000001,0.2
0.106,-0.8
0.108,-4.8
0.11,-5.8
0.112,2.4
0.114,-0.2
0.116,-2.2
0.11800000000000001,0.4
0.12,1.0
0.122,1.0
0.124,-5.0
0.126,-11.8
0.128,-6.0
0.13,3.6
0.132,1.4
0.134,1.8
0.136,0.2
0.138,-2.4
0.14,-4.2
0.14200000000000002,-7.4
0.14400000000000002,0.6
0.146,1.6
0.148,-4.2
0.15,1.8
0.152,1.0
0.154,0.4
0.156,0.2
0.158,-0.6
0.16,-2.8
0.162,-1.0
0.164,1.8
0.166,-0.2
0.168,-1.6
0.17,5.0
0.17200000000000001,1.2
0.17400000000000002,-5.4
0.176,2.4
0.178,4.4
0.18,-1.0
0.182,0.0
0.184,5.2
0.186,10.0
0.188,5.6
0.19,4.4
0.192,3.6
0.194,1.2
0.196,1.8
0.198,3.0
0.2,1.4
0.202,0.6
0.20400000000000001,-1.4
0.20600000000000002,1.8
0.20800000000000002,1.6
0.21,1.8
0.212,1.2
0.214,-3.0
0.216,-3.6
0.218,-1.2
0.22,4.0
0.222,2.8
0.224,-6.4
0.226,-7.2
0.228,-3.2
0.23,0.6
0.232,-0.6
0.234,-0.4
0.23600000000000002,-7.4
0.23800000000000002,-9.0
0.24,-5.4
0.242,-5.8
0.244,-5.8
0.246,-0.6
0.248,1.4
0.25,1.4
0.252,1.8
0.254,-3.0
0.256,-5.0
0.258,-1.8
0.26,-0.8
0.262,-4.0
0.264,-4.2
0.266,0.6
0.268,-0.8
0.27,-1.4
0.272,-4.6
0.274,-3.4
0.276,0.4
0.278,-4.4
0.28,-10.4
0.28200000000000003,-6.6
0.28400000000000003,2.2
0.28600000000000003,3.8
0.28800000000000003,4.8
0.29,11.4
0.292,16.2
0.294,21.2
0.296,25.4
0.298,21.6
0.3,22.2
0.302,23.0
0.304,21.8
0.306,17.8
0.308,13.6
0.31,14.8
0.312,11.6
0.314,9.0
0.316,5.6
0.318,-2.4
0.32,-1.6
0.322,-5.8
0.324,-9.2
0.326,-10.0
0.328,-8.6
0.33,-5.8
0.332,-2.2
0.334,1.0
0.336,5.0
0.338,2.2
0.34,4.2
0.342,3.6
0.34400000000000003,-1.6
0.34600000000000003,-1.4
0.34800000000000003,-3.0
0.35000000000000003,-4.2
0.352,-0.2
0.354,-0.4
0.356,-9.2
0.358,-16.2
0.36,-10.6
0.362,-1.2
0.364,3.6
0.366,2.0
0.368,0.0
0.37,-3.6
0.372,-3.6
0.374,-2.8
0.376,-4.2
0.378,-0.6
0.38,-1.6
0.382,-6.8
0.384,-5.4
0.386,6.6
0.388,6.4
0.39,3.8
0.392,-4.4
0.394,-6.2
0.396,-7.2
0.398,-4.0
0.4,-2.8
0.402,-1.2
0.404,-1.6
0.406,0.6
0.40800000000000003,4.6
0.41000000000000003,3.6
0.41200000000000003,1.4
0.41400000000000003,-2.2
0.41600000000000004,-4.4
0.418,-2.8
0.42,1.6
0.422,4.4
0.424,0.6
0.426,-1.2
0.428,-2.6
0.43,-0.4
0.432,0.4
0.434,0.2
0.436,6.6
0.438,0.2
0.44,-1.4
0.442,-2.2
0.444,-0.4
0.446,2.8
0.448,-6.4
0.45,-5.4
0.452,-5.0
0.454,-2.2
0.456,3.0
0.458,5.2
0.46,11.0
0.462,8.8
0.464,9.2
0.466,14.0
0.468,11.6
0.47000000000000003,12.2
0.47200000000000003,1.2
0.47400000000000003,-4.2
0.47600000000000003,-5.4
0.47800000000000004,-2.0
0.48,2.6
0.482,7.6
0.484,12.4
0.486,11.8
0.488,10.4
0.49,16.8
0.492,15.4
0.494,9.2
0.496,7.6
0.498,13.8
0.5,14.4
0.502,12.6
0.504,7.0
0.506,14.6
0.508,17.2
0.51,17.8
0.512,20.8
0.514,17.6
0.516,20.8
0.518,19.4
0.52,23.4
0.522,22.6
0.524,18.8
0.526,13.6
0.528,12.6
0.53,8.8
0.532,8.0
0.534,11.2
0.536,15.2
0.538,13.6
0.54,16.8
0.542,12.6
0.544,5.8
0.546,1.2
0.548,-2.2
0.55,-9.2
0.552,-10.6
0.554,0.6
0.556,0.8
0.558,3.6
0.56,1.6
0.562,0.0
0.5640000000000001,3.4
0.5660000000000001,3.2
0.5680000000000001,1.2
0.5700000000000001,0.4
0.5720000000000001,-4.8
0.5740000000000001,-5.8
0.5760000000000001,1.0
0.578,2.8
0.58,3.0
0.582,5.6
0.584,3.8
0.586,-0.8
0.588,-0.8
0.59,-6.4
0.592,-8.8
0.594,-4.8
0.596,1.6
0.598,3.4
0.6,5.0
0.602,2.6
0.604,-3.4
0.606,4.2
0.608,-0.4
0.61,-2.6
0.612,-2.8
0.614,4.2
0.616,2.6
0.618,10.6
0.62,10.8
0.622,4.8
0.624,2.2
0.626,-1.0
0.628,0.6
0.63,-1.4
0.632,-3.0
0.634,-0.8
0.636,0.0
0.638,7.4
0.64,10.4
0.642,10.2
0.644,9.6
0.646,7.8
0.648,-2.0
0.65,-6.6
0.652,-4.6
0.654,-1.4
0.656,2.0
0.658,3.0
0.66,2.8
0.662,0.6
0.664,-3.8
0.666,-8.8
0.668,-5.6
0.67,2.2
0.672,3.6
0.674,7.6
0.676,10.2
0.678,7.0
0.68,1.6
0.682,3.2
0.684,1.2
0.686,-5.2
0.6880000000000001,-7.6
0.6900000000000001,-6.0
0.6920000000000001,-1.6
0.6940000000000001,5.2
0.6960000000000001,10.6
0.6980000000000001,10.4
0.7000000000000001,12.2
0.7020000000000001,11.4
0.704,-3.8
0.706,-6.4
0.708,-6.0
0.71,-7.0
0.712,-2.2
0.714,1.2
0.716,3.6
0.718,-0.2
0.72,5.2
0.722,6.4
0.724,3.4
0.726,3.0
0.728,1.8
0.73,-1.4
0.732,-4.0
0.734,-1.6
0.736,1.4
0.738,3.6
0.74,4.2
0.742,2.0
0.744,1.6
0.746,-3.8
0.748,-6.4
0.75,-1.6
0.752,-2.0
0.754,-4.2
0.756,-0.8
0.758,8.6
0.76,10.8
0.762,8.6
0.764,10.8
0.766,1.6
0.768,0.2
0.77,-7.0
0.772,-11.0
0.774,-10.6
0.776,-6.6
0.778,-4.0
0.78,3.2
0.782,12.0
0.784,21.4
0.786,24.6
0.788,22.4
0.79,19.2
0.792,17.0
0.794,15.4
0.796,36.0
0.798,47.4
0.8,42.4
0.802,35.2
0.804,25.4
0.806,18.4
0.808,39.0
0.81,43.4
0.812,41.8
0.8140000000000001,40.4
0.8160000000000001,40.4
0.8180000000000001,40.4
0.8200000000000001,46.6
0.8220000000000001,47.8
0.8240000000000001,55.2
0.8260000000000001,59.0
0.8280000000000001,59.8
0.8300000000000001,62.2
0.8320000000000001,79.2
0.834,72.8
0.836,63.6
0.838,65.4
0.84,69.6
0.842,67.8
0.844,69.2
0.846,73.6
0.848,71.2
0.85,64.2
0.852,61.6
0.854,66.8
0.856,67.0
0.858,65.0
0.86,62.2
0.862,61.6
0.864,58.0
0.866,52.4
0.868,56.6
0.87,60.4
0.872,63.4
0.874,62.2
0.876,63.0
0.878,64.2
0.88,67.2
0.882,69.2
0.884,67.2
0.886,65.6
0.888,63.4
0.89,67.6
0.892,70.2
0.894,73.2
0.896,70.6
0.898,76.2
0.9,76.4
0.902,67.0
0.904,68.6
0.906,65.4
0.908,70.4
0.91,74.2
0.912,72.4
0.914,73.2
0.916,75.8
0.918,76.8
0.92,72.8
0.922,72.0
0.924,69.8
0.926,65.8
0.928,67.6
0.93,77.6
0.932,82.0
0.934,87.6
0.936,88.8
0.9380000000000001,90.8
0.9400000000000001,90.2
0.9420000000000001,87.4
0.9440000000000001,83.2
0.9460000000000001,82.2
0.9480000000000001,72.8
0.9500000000000001,64.6
0.9520000000000001,70.0
0.9540000000000001,69.4
0.9560000000000001,64.0
0.9580000000000001,60.4
0.96,64.8
0.962,59.6
0.964,63.4
0.966,60.4
0.968,51.2
0.97,52.2
0.972,57.4
0.974,61.4
0.976,57.4
0.978,56.2
0.98,53.2
0.982,54.6
0.984,49.6
0.986,49.8
0.988,48.2
0.99,42.8
0.992,39.4
0.994,39.4
0.996,43.2
0.998,45.0
1.0,43.8
1.002,38.4
1.004,36.2
1.006,37.0
1.008,35.8
1.01,31.4
1.012,33.4
1.014,37.6
1.016,34.8
1.018,39.8
1.02,33.8
1.022,30.8
1.024,31.6
1.026,30.6
1.028,30.0
1.03,29.0
1.032,26.0
1.034,26.6
1.036,28.4
1.038,25.4
1.04,26.2
1.042,29.2
1.044,26.6
1.046,26.0
1.048,24.6
1.05,21.4
1.052,22.8
1.054,27.2
1.056,24.6
1.058,24.4
1.06,22.0
1.062,22.0
1.064,23.4
1.066,22.6
1.068,22.2
1.07,15.6
1.072,15.4
1.074,21.8
1.076,23.0
1.078,23.6
1.08,23.8
1.082,25.4
1.084,28.0
1.086,27.8
1.088,15.6
1.09,7.8
1.092,15.0
1.094,19.0
1.096,20.2
1.098,20.2
1.1,17.2
1.102,17.4
1.104,22.4
1.106,22.8
1.108,24.0
1.11,21.2
1.112,17.2
1.114,20.0
1.116,21.6
1.118,23.0
1.12,26.4
1.122,21.0
1.124,17.4
1.1260000000000001,19.8
1.1280000000000001,19.8
1.1300000000000001,22.2
1.1320000000000001,20.8
1.1340000000000001,19.2
1.1360000000000001,22.0
1.1380000000000001,28.8
1.1400000000000001,22.6
1.1420000000000001,28.0
1.1440000000000001,28.8
1.1460000000000001,26.0
1.1480000000000001,19.8
1.1500000000000001,28.4
1.1520000000000001,28.0
1.154,26.0
1.156,23.8
1.158,30.2
1.16,28.2
1.162,23.6
1.164,24.2
1.166,22.6
1.168,25.6
1.17,25.8
1.172,25.4
1.174,25.8
1.176,23.8
1.178,20.2
1.18,19.2
1.182,16.0
1.184,14.8
1.186,17.2
1.188,15.8
1.19,11.0
1.192,8.2
1.194,8.6
1.196,11.0
1.198,6.0
1.2,5.8
1.202,9.4
1.204,14.0
1.206,13.8
1.208,7.2
1.21,4.4
1.212,7.0
1.214,2.8
1.216,5.2
1.218,6.6
1.22,6.6
1.222,9.0
1.224,6.8
1.226,12.4
1.228,12.0
1.23,6.2
1.232,-1.0
1.234,-3.4
1.236,-4.6
1.238,-7.4
1.24,-1.2
1.242,4.6
1.244,10.0
1.246,12.6
1.248,7.2
1.25,2.0
1.252,6.6
1.254,9.4
1.256,6.4
1.258,3.2
1.26,0.0
1.262,-4.2
1.264,0.0
1.266,6.8
1.268,9.6
1.27,8.2
1.272,6.2
1.274,2.6
1.276,5.4
1.278,1.6
1.28,2.4
1.282,-0.6
1.284,-2.0
1.286,0.4
1.288,-2.0
1.29,0.2
1.292,4.2
1.294,6.0
1.296,3.8
1.298,-2.0
1.3,-0.2
1.302,0.6
1.304,3.0
1.306,6.6
1.308,9.0
1.31,4.6
1.312,8.0
1.314,5.0
1.316,1.4
1.318,1.0
1.32,-2.6
1.322,-1.0
1.324,1.8
1.326,2.0
1.328,2.0
1.33,5.6
1.332,7.4
1.334,1.2
1.336,3.2
1.338,6.4
1.34,5.4
1.342,4.6
1.344,1.8
1.346,3.0
1.348,2.4
1.35,3.0
1.352,1.4
1.354,0.2
1.356,-0.2
1.358,-1.2
1.36,-2.6
1.362,-1.8
1.364,10.2
1.366,6.8
1.368,6.6
1.37,3.0
1.372,2.2
1.374,-1.6
1.3760000000000001,-7.0
1.3780000000000001,-4.6
1.3800000000000001,2.8
1.3820000000000001,2.8
1.3840000000000001,6.6
1.3860000000000001,5.4
1.3880000000000001,4.0
1.3900000000000001,1.8
1.3920000000000001,0.4
1.3940000000000001,-0.8
1.3960000000000001,2.4
1.3980000000000001,2.6
1.4000000000000001,2.4
1.4020000000000001,-0.6
1.4040000000000001,-1.2
1.4060000000000001,3.6
1.408,0.8
1.41,-2.4
1.412,0.0
1.414,2.4
1.416,6.0
1.418,5.0
1.42,4.4
1.422,3.6
1.424,0.6
1.426,-3.6
1.428,-3.0
1.43,0.2
1.432,9.8
1.434,12.4
1.436,11.6
1.438,8.6
1.44,3.6
1.442,-3.0
1.444,-5.2
1.446,-1.8
1.448,6.0
1.45,8.0
1.452,14.4
1.454,8.2
1.456,7.4
1.458,4.0
1.46,3.8
1.462,3.4
1.464,-4.8
1.466,-7.4
1.468,3.0
1.47,6.4
1.472,9.8
1.474,9.2
1.476,5.8
1.478,0.4
1.48,0.6
1.482,-0.6
1.484,-9.4
1.486,-10.8
1.488,-7.0
1.49,-3.8
1.492,-1.8
1.494,2.0
1.496,-0.2
1.498,2.8
1.5,3.8
1.502,3.4
1.504,1.4
1.506,-0.6
1.508,-5.0
1.51,-4.2
1.512,-0.8
1.514,-4.2
1.516,-7.2
1.518,-9.4
1.52,-6.0
1.522,1.4
1.524,-1.6
1.526,-0.8
1.528,-0.6
1.53,-5.4
1.532,-0.6
1.534,-1.6
1.536,-2.6
1.538,-3.4
1.54,-1.8
1.542,5.2
1.544,13.4
1.546,16.8
1.548,15.6
1.55,17.6
1.552,19.6
1.554,24.0
1.556,25.8
1.558,27.4
1.56,32.2
1.562,29.0
1.564,24.2
1.566,20.2
1.568,16.8
1.57,11.6
1.572,6.4
1.574,8.2
1.576,8.0
1.578,7.0
1.58,5.8
1.582,-0.4
1.584,-2.8
1.586,-2.2
1.588,-3.6
1.59,-5.4
1.592,-2.8
1.594,-5.0
1.596,-5.8
1.598,-3.6
1.6,-3.6
1.602,-1.0
1.604,-0.2
1.606,-2.8
1.608,-3.4
1.61,-5.2
1.612,-5.2
1.614,0.2
1.616,1.2
1.618,0.6
1.62,7.4
1.622,9.4
1.624,2.6
1.6260000000000001,-0.2
1.6280000000000001,-4.6
1.6300000000000001,-11.4
1.6320000000000001,-10.0
1.6340000000000001,-10.8
1.6360000000000001,-3.0
1.6380000000000001,-2.4
1.6400000000000001,0.0
1.6420000000000001,0.0
1.6440000000000001,0.2
1.6460000000000001,-1.6
1.6480000000000001,-0.2
1.6500000000000001,-4.6
1.6520000000000001,-5.6
1.6540000000000001,-1.6
1.6560000000000001,-3.0
1.6580000000000001,-2.6
1.6600000000000001,0.0
1.6620000000000001,0.8
1.6640000000000001,2.4
1.666,11.2
1.668,9.8
1.67,3.6
1.672,-0.2
1.674,-4.8
1.676,-4.4
1.678,-4.4
1.68,-2.0
1.682,-1.4
1.684,0.8
1.686,-2.6
1.688,1.0
1.69,0.4
1.692,1.4
1.694,1.4
1.696,-1.0
1.698,-1.2
1.7,0.8
1.702,2.2
1.704,9.4
1.706,15.6
1.708,17.0
1.71,13.0
1.712,2.0
1.714,-1.0
1.716,-1.0
1.718,-2.0
1.72,-2.8
1.722,0.2
1.724,2.4
1.726,1.2
1.728,1.4
1.73,8.8
1.732,12.0
1.734,13.6
1.736,10.8
1.738,12.2
1.74,11.8
1.742,12.2
1.744,14.8
1.746,14.4
1.748,13.4
1.75,15.2
1.752,9.0
1.754,9.0
1.756,8.0
1.758,13.0
1.76,12.6
1.762,11.8
1.764,10.4
1.766,14.2
1.768,13.2
1.77,9.8
1.772,14.0
1.774,14.2
1.776,18.0
1.778,20.6
1.78,20.6
1.782,21.2
1.784,19.4
1.786,17.0
1.788,17.2
1.79,12.2
1.792,13.6
1.794,12.2
1.796,10.0
1.798,9.2
1.8,8.2
1.802,9.2
1.804,10.0
1.806,8.2
1.808,5.8
1.81,1.8
1.812,1.6
1.814,2.2
1.816,6.0
1.818,3.2
1.82,2.8
1.822,2.6
1.824,2.0
1.826,-0.4
1.828,-0.2
1.83,-2.0
1.832,-4.2
1.834,-4.2
1.836,2.8
1.838,1.6
1.84,0.8
1.842,-0.2
1.844,1.6
1.846,-3.6
1.848,-7.6
1.85,-6.8
1.852,-4.4
1.854,-4.4
1.856,-5.6
1.858,-0.6
1.86,-0.6
1.862,-1.4
1.864,-0.8
1.866,-2.0
1.868,-0.6
1.87,2.6
1.872,1.0
1.874,3.8
1.8760000000000001,2.2
1.8780000000000001,-0.8
1.8800000000000001,-2.0
1.8820000000000001,1.4
1.8840000000000001,-2.2
1.8860000000000001,-4.0
1.8880000000000001,-1.0
1.8900000000000001,2.8
1.8920000000000001,-0.2
1.8940000000000001,-1.6
1.8960000000000001,-3.4
1.8980000000000001,-0.4
1.9000000000000001,2.2
1.9020000000000001,0.8
1.9040000000000001,-0.6
1.9060000000000001,-0.4
1.9080000000000001,-2.2
1.9100000000000001,-5.8
1.9120000000000001,-4.4
1.9140000000000001,-1.8
1.9160000000000001,3.4
1.9180000000000001,5.8
1.92,1.8
1.922,-5.2
1.924,-6.0
1.926,-9.8
1.928,-7.0
1.93,-11.0
1.932,5.4
1.934,9.4
1.936,7.8
1.938,8.6
1.94,-0.8
1.942,-2.0
1.944,-0.8
1.946,-4.0
1.948,-5.0
1.95,-5.6
1.952,-2.2
1.954,-1.2
1.956,-3.0
1.958,-4.4
1.96,-3.6
1.962,-1.4
1.964,-0.2
1.966,1.0
1.968,-2.2
1.97,-4.8
1.972,-3.2
1.974,-5.2
1.976,-2.0
1.978,3.0
1.98,0.6
1.982,2.6
1.984,1.4
1.986,1.6
1.988,0.0
1.99,-2.2
1.992,-1.8
1.994,1.4
1.996,-0.2
1.998,0.2
2.0,0.2
2.0020000000000002,0.6
2.004,0.2
2.0060000000000002,-1.0
2.008,-1.0
2.0100000000000002,-0.8
2.012,-0.2
2.0140000000000002,4.2
2.016,3.2
2.0180000000000002,-1.2
2.02,-7.8
2.0220000000000002,-4.6
2.024,-2.2
2.0260000000000002,-2.8
2.028,-1.8
2.0300000000000002,1.8
2.032,0.8
2.0340000000000003,3.0
2.036,3.8
2.0380000000000003,-1.0
2.04,-1.6
2.0420000000000003,-0.2
2.044,1.2
2.0460000000000003,3.2
2.048,4.8
2.05,4.8
2.052,4.8
2.054,1.8
2.056,1.4
2.058,-4.6
2.06,0.4
2.062,6.0
2.064,3.4
2.066,4.2
2.068,4.0
2.07,2.2
2.072,-2.0
2.074,3.6
2.076,4.0
2.078,6.0
2.08,2.0
2.082,0.0
2.084,-2.4
2.086,2.4
2.088,-2.0
2.09,-3.2
2.092,-1.8
2.094,-2.2
2.096,-6.2
2.098,-4.4
2.1,-0.6
2.102,-0.6
2.104,0.8
2.106,1.4
2.108,3.4
2.11,6.6
2.112,2.8
2.114,-3.4
2.116,-9.4
2.118,-10.0
2.12,-7.2
2.122,1.0
2.124,4.0
2.126,2.6
2.128,-3.6
2.13,-4.2
2.132,-3.2
2.134,-5.6
2.136,-6.8
2.138,-3.0
2.14,-1.2
2.142,-1.2
2.144,-1.8
2.146,-3.4
2.148,-4.0
2.15,-6.4
2.152,-6.8
2.154,-7.8
2.156,-3.8
2.158,-3.2
2.16,-0.4
2.162,1.8
2.164,2.4
2.166,7.0
2.168,12.6
2.17,15.0
2.172,18.2
2.174,26.6
2.176,33.6
2.178,38.0
2.18,32.6
2.182,25.4
2.184,21.6
2.186,20.6
2.188,15.6
2.19,5.6
2.192,3.6
2.194,4.4
2.196,0.0
2.198,1.8
2.2,-8.6
2.202,-15.8
2.204,-6.8
2.206,2.2
2.208,-2.6
2.21,-1.2
2.212,-1.8
2.214,-0.8
2.216,-0.8
2.218,-3.6
2.22,-7.0
2.222,-6.0
2.224,2.6
2.226,4.0
2.228,2.0
2.23,-0.8
2.232,-3.0
2.234,-2.4
2.236,-1.6
2.238,-4.6
2.24,-5.4
2.242,-3.4
2.244,-0.6
2.246,-0.2
2.248,-7.8
2.25,-6.2
2.2520000000000002,-10.6
2.254,-8.2
2.2560000000000002,0.2
2.258,-0.8
2.2600000000000002,-0.4
2.262,-1.6
2.2640000000000002,0.2
2.266,-1.2
2.2680000000000002,-1.8
2.27,-0.4
2.2720000000000002,-2.0
2.274,-2.2
2.2760000000000002,-1.0
2.278,2.4
2.2800000000000002,3.4
2.282,1.2
2.2840000000000003,0.0
2.286,-2.8
2.2880000000000003,-3.2
2.29,-6.0
2.2920000000000003,-3.0
2.294,-2.4
2.2960000000000003,2.8
2.298,1.6
2.3000000000000003,0.2
2.302,0.6
2.3040000000000003,2.0
2.306,-1.8
2.308,1.4
2.31,-2.0
2.312,-4.4
2.314,-3.8
2.316,-1.4
2.318,-0.4
2.32,0.4
2.322,0.2
2.324,0.2
2.326,1.0
2.328,0.0
2.33,0.2
2.332,-0.2
2.334,5.8
2.336,12.0
2.338,16.2
2.34,15.0
2.342,7.6
2.344,-2.4
2.346,-4.6
2.348,1.8
2.35,0.6
2.352,7.4
2.354,10.6
2.356,3.4
2.358,4.2
2.36,7.8
2.362,4.0
2.364,6.6
2.366,6.4
2.368,9.8
2.37,11.2
2.372,12.0
2.374,16.4
2.376,21.8
2.378,17.8
2.38,13.6
2.382,13.8
2.384,8.2
2.386,7.8
2.388,11.4
2.39,18.4
2.392,14.8
2.394,14.2
2.396,10.0
2.398,14.8
2.4,19.0
2.402,18.0
2.404,18.4
2.406,16.8
2.408,14.2
2.41,14.4
2.412,15.4
2.414,15.4
2.416,11.2
2.418,10.4
2.42,11.0
2.422,4.8
2.424,5.0
2.426,5.6
2.428,4.2
2.43,2.6
2.432,1.8
2.434,3.0
2.436,0.4
2.438,1.2
2.44,-0.4
2.442,1.0
2.444,-0.6
2.446,-0.4
2.448,2.4
2.45,3.8
2.452,1.2
2.454,-0.4
2.456,-0.2
2.458,-6.2
2.46,-9.2
2.462,-10.0
2.464,-5.2
2.466,1.8
2.468,2.0
2.47,7.6
2.472,3.6
2.474,2.0
2.476,-1.0
2.478,-1.8
2.48,-2.6
2.482,-3.8
2.484,-3.8
2.486,1.0
2.488,1.4
2.49,3.6
2.492,1.4
2.494,-6.8
2.496,-10.0
2.498,-8.2
2.5,-10.2
2.5020000000000002,-6.2
2.504,-0.4
2.5060000000000002,6.2
2.508,3.2
2.5100000000000002,-0.8
2.512,-2.0
2.5140000000000002,-3.2
2.516,-2.6
2.5180000000000002,1.4
2.52,2.0
2.5220000000000002,3.8
2.524,-0.2
2.5260000000000002,0.4
2.528,0.0
2.5300000000000002,-2.6
2.532,-8.8
2.5340000000000003,-12.8
2.536,-7.4
2.5380000000000003,-3.2
2.54,3.4
2.5420000000000003,5.0
2.544,1.8
2.5460000000000003,0.8
2.548,-4.2
2.5500000000000003,-0.8
2.552,-3.2
2.5540000000000003,-5.4
2.556,-2.4
2.5580000000000003,-2.0
2.56,0.2
2.562,2.6
2.564,3.4
2.566,1.8
2.568,-2.4
2.57,-2.6
2.572,-2.6
2.574,-5.8
2.576,-5.6
2.578,2.6
2.58,4.8
2.582,2.4
2.584,-4.2
2.586,-4.8
2.588,-6.2
2.59,-11.4
2.592,-5.0
2.594,-1.4
2.596,-3.6
2.598,-0.6
2.6,0.4
2.602,2.0
2.604,-2.8
2.606,-0.8
2.608,0.2
2.61,-0.2
2.612,-7.0
2.614,0.6
2.616,10.0
2.618,3.6
2.62,-0.8
2.622,-3.6
2.624,-8.8
2.626,-9.6
2.628,-7.6
2.63,1.8
2.632,1.0
2.634,-1.6
2.636,1.8
2.638,1.0
2.64,1.4
2.642,0.6
2.644,-1.4
2.646,-2.4
2.648,-0.4
2.65,0.2
2.652,-4.6
2.654,-3.8
2.656,1.8
2.658,0.6
2.66,3.2
2.662,6.0
2.664,1.2
2.666,0.0
2.668,0.6
2.67,4.8
2.672,3.2
2.674,5.0
2.676,7.4
2.678,5.4
2.68,4.4
2.682,-0.6
2.684,-0.8
2.686,2.6
2.688,2.6
2.69,2.8
2.692,1.8
2.694,1.2
2.696,-0.8
2.698,-3.2
2.7,-0.8
2.702,1.2
2.704,1.2
2.706,-0.4
2.708,3.0
2.71,5.6
2.712,0.0
2.714,-5.2
2.716,-7.2
2.718,-8.8
2.72,-11.2
2.722,-9.0
2.724,-6.2
2.726,-5.4
2.728,-0.4
2.73,2.4
2.732,2.0
2.734,-4.0
2.736,-3.6
2.738,-2.0
2.74,-0.8
2.742,0.8
2.744,-1.4
2.746,-4.6
2.748,-9.0
2.75,-8.0
2.7520000000000002,0.2
2.754,-0.4
2.7560000000000002,0.4
2.758,-4.2
2.7600000000000002,-3.6
2.762,-3.8
2.7640000000000002,-0.4
2.766,-2.0
2.7680000000000002,-2.6
2.77,-2.4
2.7720000000000002,-9.0
2.774,-9.6
2.7760000000000002,-4.6
2.778,-0.2
2.7800000000000002,2.0
2.782,7.6
2.7840000000000003,12.8
2.786,18.2
2.7880000000000003,23.6
2.79,22.2
2.7920000000000003,21.6
2.794,28.6
2.7960000000000003,31.0
2.798,29.4
2.8000000000000003,25.6
2.802,22.4
2.8040000000000003,16.2
2.806,7.8
2.8080000000000003,0.6
2.81,1.8
2.8120000000000003,-1.8
2.814,1.4
2.816,5.8
2.818,2.0
2.82,-2.0
2.822,-6.4
2.824,-5.6
2.826,-5.2
2.828,-5.4
2.83,-3.4
2.832,-4.0
2.834,-3.6
2.836,-7.0
2.838,-8.2
2.84,-6.6
2.842,2.2
2.844,1.0
2.846,-3.4
2.848,-10.6
2.85,-8.8
2.852,-3.2
2.854,-3.6
2.856,-5.0
2.858,-0.2
2.86,2.8
2.862,2.4
2.864,-3.2
2.866,-1.0
2.868,1.0
2.87,-0.2
2.872,-1.2
2.874,-4.6
2.876,-6.0
2.878,-4.4
2.88,-4.8
2.882,-1.8
2.884,5.2
2.886,2.0
2.888,-3.2
2.89,0.6
2.892,2.2
2.894,-2.0
2.896,-8.6
2.898,-6.0
2.9,-1.8
2.902,2.2
2.904,-1.6
2.906,0.2
2.908,-0.6
2.91,0.0
2.912,1.0
2.914,-3.0
2.916,-3.6
2.918,-6.6
2.92,-7.6
2.922,-4.0
2.924,-3.6
2.926,-6.0
2.928,-1.2
2.93,2.4
2.932,-1.4
2.934,3.8
2.936,7.2
2.938,7.4
2.94,2.6
2.942,0.6
2.944,-0.2
2.946,1.2
2.948,2.4
2.95,5.6
2.952,6.4
2.954,8.8
2.956,10.0
2.958,1.8
2.96,-5.2
2.962,-9.4
2.964,0.4
2.966,4.2
2.968,4.8
2.97,6.0
2.972,8.8
2.974,10.0
2.976,6.4
2.978,4.4
2.98,3.2
2.982,7.2
2.984,12.6
2.986,14.2
2.988,13.8
2.99,16.4
2.992,12.6
2.994,9.4
2.996,9.0
2.998,9.2
3.0,12.2
3.0020000000000002,13.2
3.004,14.0
3.0060000000000002,11.0
3.008,10.4
3.0100000000000002,9.6
3.012,12.6
3.0140000000000002,18.2
3.016,20.0
3.0180000000000002,16.6
3.02,18.8
3.0220000000000002,12.8
3.024,20.0
3.0260000000000002,19.6
3.028,17.8
3.0300000000000002,15.2
3.032,13.2
3.0340000000000003,10.6
3.036,3.4
3.0380000000000003,2.6
3.04,4.0
3.0420000000000003,6.0
3.044,2.4
3.0460000000000003,0.8
3.048,2.8
3.0500000000000003,3.0
3.052,4.8
3.0540000000000003,0.6
3.056,0.4
3.0580000000000003,1.2
3.06,3.2
3.0620000000000003,2.6
3.064,0.6
3.0660000000000003,2.8
3.068,-3.4
3.0700000000000003,-6.6
3.072,-4.8
3.074,-5.2
3.076,-5.2
3.078,-6.0
3.08,-8.8
3.082,-9.0
3.084,-0.6
3.086,2.2
3.088,-1.8
3.09,-1.2
3.092,0.4
3.094,5.6
3.096,10.8
3.098,-0.6
3.1,-6.6
3.102,-5.8
3.104,-5.0
3.106,0.2
3.108,6.0
3.11,5.6
3.112,2.2
3.114,-4.4
3.116,-6.2
3.118,-4.2
3.12,0.6
3.122,-3.2
3.124,-9.2
3.126,-6.0
3.128,-3.6
3.13,-1.8
3.132,-4.0
3.134,-4.0
3.136,-6.8
3.138,-5.4
3.14,-7.0
3.142,-5.4
3.144,-7.4
3.146,-1.2
3.148,0.4
3.15,7.4
3.152,4.2
3.154,-1.4
3.156,-4.6
3.158,-6.0
3.16,-3.2
3.162,-0.4
3.164,0.0
3.166,2.6
3.168,-2.8
3.17,-4.2
3.172,-3.8
3.174,-0.4
3.176,3.4
3.178,3.2
3.18,1.0
3.182,2.6
3.184,4.0
3.186,3.6
3.188,-2.0
3.19,-7.0
3.192,-11.0
3.194,-9.0
3.196,-3.6
3.198,-0.2
3.2,0.6
3.202,2.2
3.204,-0.8
3.206,-7.4
3.208,-9.4
3.21,-1.4
3.212,1.4
3.214,2.6
3.216,6.8
3.218,4.4
3.22,5.4
3.222,2.2
3.224,-3.2
3.226,-4.6
3.228,-2.8
3.23,-1.4
3.232,-0.4
3.234,-3.4
3.236,1.2
3.238,4.2
3.24,0.0
3.242,-2.6
3.244,-4.6
3.246,-4.6
3.248,2.0
3.25,2.4
3.2520000000000002,-1.0
3.254,1.0
3.2560000000000002,5.4
3.258,4.0
3.2600000000000002,-7.2
3.262,-11.6
3.2640000000000002,-6.0
3.266,0.8
3.2680000000000002,0.8
3.27,1.2
3.2720000000000002,3.4
3.274,5.0
3.2760000000000002,9.6
3.278,11.2
3.2800000000000002,4.6
3.282,4.2
3.2840000000000003,0.4
3.286,0.6
3.2880000000000003,-0.4
3.29,0.6
3.2920000000000003,0.8
3.294,-1.2
3.2960000000000003,-0.6
3.298,-4.6
3.3000000000000003,-0.2
3.302,0.0
3.3040000000000003,-0.4
3.306,-2.6
3.3080000000000003,-4.0
3.31,-3.2
3.3120000000000003,3.4
3.314,4.4
3.3160000000000003,4.8
3.318,0.2
3.3200000000000003,-4.8
3.322,-1.0
3.3240000000000003,0.8
3.326,-1.0
3.3280000000000003,-0.4
3.33,-5.8
3.332,-9.4
3.334,-4.8
3.336,-6.4
3.338,-6.2
3.34,-5.4
3.342,-3.0
3.344,1.4
3.346,1.8
3.348,8.2
3.35,4.2
3.352,-5.0
3.354,-10.2
3.356,-10.8
3.358,-4.6
3.36,-5.0
3.362,-3.2
3.364,2.0
3.366,0.4
3.368,-5.0
3.37,-5.6
3.372,-5.6
3.374,-8.4
3.376,-4.2
3.378,-2.0
3.38,1.0
3.382,9.0
3.384,14.6
3.386,20.8
3.388,25.2
3.39,25.8
3.392,21.2
3.394,24.4
3.396,25.0
3.398,25.0
3.4,29.6
3.402,23.6
3.404,20.8
3.406,13.4
3.408,10.2
3.41,6.4
3.412,1.6
3.414,1.4
3.416,-0.2
3.418,-3.0
3.42,-8.6
3.422,-6.0
3.424,-4.4
3.426,0.8
3.428,6.2
3.43,1.8
3.432,1.0
3.434,-2.4
3.436,-2.0
3.438,-0.4
3.44,-2.2
3.442,-5.4
3.444,-5.2
3.446,-9.4
3.448,-6.0
3.45,-7.4
3.452,-7.6
3.454,-6.8
3.456,-1.4
3.458,-2.6
3.46,-5.0
3.462,2.2
3.464,-2.8
3.466,-9.2
3.468,-9.4
3.47,-6.2
3.472,-2.0
3.474,-1.2
3.476,-1.8
3.478,-1.6
3.48,1.6
3.482,2.6
3.484,1.6
3.486,-2.8
3.488,-0.6
3.49,4.2
3.492,2.2
3.494,-3.0
3.496,-3.8
3.498,-3.0
3.5,-3.8
3.5020000000000002,-4.4
3.504,-3.6
3.5060000000000002,-5.6
3.508,-5.6
3.5100000000000002,-5.0
3.512,-1.4
3.5140000000000002,2.4
3.516,5.0
3.5180000000000002,2.6
3.52,2.8
3.5220000000000002,1.8
3.524,1.0
3.5260000000000002,-1.4
3.528,-6.4
3.5300000000000002,-6.4
3.532,-4.6
3.5340000000000003,-2.2
3.536,-1.2
3.5380000000000003,3.0
3.54,4.6
3.5420000000000003,5.0
3.544,4.2
3.5460000000000003,-1.0
3.548,1.8
3.5500000000000003,4.0
3.552,4.6
3.5540000000000003,8.0
3.556,4.6
3.5580000000000003,0.4
3.56,0.0
3.5620000000000003,2.2
3.564,1.4
3.5660000000000003,-1.0
3.568,0.0
3.5700000000000003,6.4
3.572,10.0
3.5740000000000003,12.6
3.576,8.8
3.5780000000000003,7.4
3.58,6.2
3.5820000000000003,6.0
3.584,4.6
3.586,6.6
3.588,7.8
3.59,8.4
3.592,10.2
3.594,19.8
3.596,17.8
3.598,17.8
3.6,17.4
3.602,14.8
3.604,15.2
3.606,14.4
3.608,14.6
3.61,13.0
3.612,11.2
3.614,10.8
3.616,16.8
3.618,14.4
3.62,16.2
3.622,15.0
3.624,18.0
3.626,16.2
3.628,15.6
3.63,9.2
3.632,5.8
3.634,4.8
3.636,6.0
3.638,5.2
3.64,4.6
3.642,0.4
3.644,1.6
3.646,2.8
3.648,2.8
3.65,8.2
3.652,8.2
3.654,3.2
3.656,-1.0
3.658,-0.2
3.66,-1.2
3.662,-3.0
3.664,-3.8
3.666,-2.0
3.668,-5.4
3.67,-4.0
3.672,-4.2
3.674,-6.8
3.676,-7.0
3.678,-12.2
3.68,-7.4
3.682,3.6
3.684,2.2
3.686,2.8
3.688,1.0
3.69,-0.2
3.692,2.0
3.694,-3.2
3.696,-3.8
3.698,-2.2
3.7,-1.6
3.702,-0.4
3.704,-0.6
3.706,-3.8
3.708,-2.4
3.71,-1.4
3.712,-2.8
3.714,-5.8
3.716,-8.6
3.718,-2.0
3.72,-2.4
3.722,-3.0
3.724,-0.8
3.726,-0.6
3.728,-1.2
3.73,-5.4
3.732,-6.8
3.734,-1.4
3.736,1.0
3.738,-1.8
3.74,-2.2
3.742,-2.6
3.744,-0.6
3.746,-0.6
3.748,-8.2
3.75,-2.4
3.7520000000000002,-0.8
3.754,-5.4
3.7560000000000002,-2.0
3.758,3.0
3.7600000000000002,6.6
3.762,-1.6
3.7640000000000002,-1.2
3.766,-2.8
3.7680000000000002,-4.6
3.77,-4.6
3.7720000000000002,-4.4
3.774,-3.8
3.7760000000000002,-5.4
3.778,-10.2
3.7800000000000002,-1.2
3.782,-2.2
3.7840000000000003,-7.0
3.786,-8.4
3.7880000000000003,-6.0
3.79,-3.8
3.7920000000000003,-0.2
3.794,3.2
3.7960000000000003,3.4
3.798,3.8
3.8000000000000003,3.8
3.802,2.8
3.8040000000000003,-3.4
3.806,-1.4
3.8080000000000003,-5.8
3.81,-8.2
3.8120000000000003,-7.6
3.814,-1.4
3.8160000000000003,0.0
3.818,4.4
3.8200000000000003,6.2
3.822,-0.4
3.8240000000000003,-3.0
3.826,-0.4
3.8280000000000003,-2.2
3.83,-4.2
3.8320000000000003,-2.8
3.834,-3.0
3.8360000000000003,-5.0
3.838,-4.4
3.84,-3.2
3.842,-3.8
3.844,-3.2
3.846,-0.6
3.848,6.6
3.85,3.2
3.852,1.2
3.854,1.6
3.856,-0.4
3.858,-3.0
3.86,-5.4
3.862,-1.6
3.864,1.0
3.866,1.8
3.868,4.2
3.87,4.0
3.872,1.8
3.874,3.6
3.876,5.2
3.878,1.6
3.88,2.8
3.882,2.6
3.884,1.8
3.886,3.0
3.888,3.6
3.89,2.8
3.892,0.8
3.894,-0.6
3.896,-4.0
3.898,-4.6
3.9,-3.4
3.902,-5.4
3.904,-1.4
3.906,0.6
3.908,0.4
3.91,-0.8
3.912,1.2
3.914,-2.0
3.916,-2.8
3.918,-5.2
3.92,-3.0
3.922,-0.2
3.924,1.6
3.926,0.4
3.928,-3.2
3.93,-2.6
3.932,-1.6
3.934,-4.2
3.936,-7.8
3.938,-4.4
3.94,-0.8
3.942,-1.4
3.944,0.2
3.946,1.2
3.948,-0.8
3.95,-4.2
3.952,-4.8
3.954,-7.2
3.956,-10.2
3.958,-4.6
3.96,-4.6
3.962,-4.8
3.964,-4.8
3.966,-5.4
3.968,-7.0
3.97,-8.6
3.972,-9.0
3.974,-3.2
3.976,-8.0
3.978,-4.0
3.98,-1.0
3.982,-0.6
3.984,3.8
3.986,6.8
3.988,8.4
3.99,15.4
3.992,20.8
3.994,26.6
3.996,24.6
3.998,27.2
4.0,31.6
4.002,31.4
4.0040000000000004,25.6
4.006,18.0
4.008,22.4
4.01,13.0
4.0120000000000005,14.2
4.014,8.4
4.016,1.6
4.018,2.2
4.0200000000000005,2.4
4.022,-4.2
4.024,-9.2
4.026,-3.4
4.0280000000000005,-1.2
4.03,4.2
4.032,-2.2
4.034,-7.2
4.0360000000000005,-4.2
4.038,-0.8
4.04,-5.2
4.042,-2.0
4.0440000000000005,-2.4
4.046,-3.0
4.048,-6.4
4.05,-6.2
4.0520000000000005,-4.2
4.054,-2.6
4.056,-7.4
4.058,-1.2
4.0600000000000005,-0.6
4.062,-1.8
4.064,-2.6
4.066,-3.2
4.0680000000000005,-3.6
4.07,-2.4
4.072,-3.2
4.074,-4.0
4.0760000000000005,-3.4
4.078,-2.8
4.08,-1.4
4.082,-2.0
4.0840000000000005,-0.8
4.086,-2.4
4.088,-3.2
4.09,-6.2
4.0920000000000005,-4.2
4.094,-3.2
4.096,-6.0
4.098,-6.2
4.1,0.2
4.102,2.0
4.104,-3.0
4.106,-4.2
4.108,-2.0
4.11,-3.4
4.112,-2.2
4.114,-1.2
4.116,-2.4
4.118,-5.6
4.12,-5.2
4.122,-1.6
4.124,3.2
4.126,2.6
4.128,1.8
4.13,-2.8
4.132,-1.8
4.134,-3.6
4.136,-6.4
4.138,2.6
4.14,2.4
4.142,3.2
4.144,3.4
4.146,-0.2
4.148,3.6
4.15,5.2
4.152,4.8
4.154,5.6
4.156,4.2
4.158,1.0
4.16,-2.6
4.162,-5.8
4.164,-5.8
4.166,0.6
4.168,1.4
4.17,6.4
4.172,11.2
4.174,11.8
4.176,10.0
4.178,1.4
4.18,-0.6
4.182,2.2
4.184,4.6
4.186,9.2
4.188,13.4
4.19,16.6
4.192,17.4
4.194,12.4
4.196,10.0
4.198,8.8
4.2,8.2
4.202,8.8
4.204,17.0
4.206,17.0
4.208,16.4
4.21,14.4
4.212,13.4
4.214,10.0
4.216,6.8
4.218,13.0
4.22,15.2
4.222,14.0
4.224,8.6
4.226,10.8
4.228,11.0
4.23,9.8
4.232,9.0
4.234,10.6
4.236,13.0
4.238,12.0
4.24,7.0
4.242,7.8
4.244,7.4
4.246,3.8
4.248,4.4
4.25,1.6
4.252,1.0
4.2540000000000004,5.2
4.256,0.8
4.258,-1.2
4.26,0.4
4.2620000000000005,-3.6
4.264,-7.0
4.266,-5.8
4.268,-2.2
4.2700000000000005,-3.4
4.272,1.0
4.274,3.2
4.276,-1.4
4.2780000000000005,-2.8
4.28,-2.4
4.282,-1.0
4.284,3.6
4.2860000000000005,-1.0
4.288,-2.0
4.29,-1.4
4.292,-1.4
4.2940000000000005,-0.4
4.296,-1.6
4.298,-3.6
4.3,-5.0
4.3020000000000005,-5.2
4.304,-9.0
4.306,-4.6
4.308,-3.6
4.3100000000000005,-4.8
4.312,-6.4
4.314,-6.8
4.316,-6.4
4.3180000000000005,-0.6
4.32,-3.0
4.322,-2.6
4.324,-3.6
4.3260000000000005,-6.0
4.328,-5.4
4.33,-3.2
4.332,-1.2
4.3340000000000005,0.8
4.336,0.6
4.338,0.8
4.34,0.6
4.3420000000000005,-2.4
4.344,-3.8
4.346,-7.6
4.348,0.8
4.3500000000000005,2.4
4.352,1.0
4.354,-4.0
4.356,-5.4
4.358,-3.8
4.36,-2.2
4.362,0.2
4.364,-2.0
4.366,-4.4
4.368,-2.8
4.37,-0.4
4.372,-4.6
4.374,-7.4
4.376,-8.0
4.378,4.6
4.38,0.4
4.382,-0.2
4.384,0.2
4.386,-2.2
4.388,-0.6
4.39,-1.2
4.392,-2.0
4.394,-0.6
4.396,-0.2
4.398,-3.6
4.4,-5.4
4.402,0.4
4.404,0.8
4.406,1.6
4.408,0.4
4.41,-3.0
4.412,-4.6
4.414,-5.6
4.416,-1.0
4.418,4.4
4.42,0.0
4.422,-5.6
4.424,-2.8
4.426,-5.6
4.428,-5.8
4.43,-5.8
4.432,-3.4
4.434,-3.4
4.436,-0.2
4.438,-0.6
4.44,1.0
4.442,2.6
4.444,0.2
4.446,1.0
4.448,3.2
4.45,0.8
4.452,-1.8
4.454,-5.4
4.456,-8.0
4.458,-4.6
4.46,-1.4
4.462,0.0
4.464,-3.6
4.466,-2.8
4.468,3.4
4.47,3.0
4.472,3.0
4.474,-0.4
4.476,3.2
4.478,0.2
4.48,1.6
4.482,3.2
4.484,4.6
4.486,5.0
4.488,-3.8
4.49,-0.4
4.492,3.0
4.494,2.4
4.496,4.6
4.498,0.4
4.5,-3.2
4.502,-2.6
4.5040000000000004,3.0
4.506,-1.8
4.508,-3.6
4.51,-6.4
4.5120000000000005,-1.2
4.514,-2.0
4.516,5.0
4.518,-1.2
4.5200000000000005,-2.2
4.522,-2.2
4.524,-1.0
4.526,0.6
4.5280000000000005,-8.4
4.53,-11.6
4.532,-3.4
4.534,-0.2
4.5360000000000005,-4.4
4.538,-0.8
4.54,-2.2
4.542,-2.4
4.5440000000000005,-4.0
4.546,-2.6
4.548,1.0
4.55,2.2
4.5520000000000005,-3.6
4.554,-3.6
4.556,-1.2
4.558,-0.6
4.5600000000000005,1.8
4.562,-0.4
4.564,-3.2
4.566,-2.0
4.5680000000000005,1.4
4.57,0.4
4.572,3.6
4.574,0.6
4.5760000000000005,-0.8
4.578,-4.8
4.58,-5.0
4.582,-8.0
4.5840000000000005,-8.4
4.586,-13.8
4.588,-9.2
4.59,-6.8
4.5920000000000005,-6.6
4.594,-1.6
4.596,2.2
4.598,5.4
4.6000000000000005,24.0
4.602,22.0
4.604,24.6
4.606,28.6
4.6080000000000005,28.8
4.61,21.2
4.612,17.8
4.614,9.8
4.616,12.8
4.618,7.2
4.62,-1.6
4.622,-5.0
4.624,-9.8
4.626,-9.0
4.628,-9.6
4.63,-4.0
4.632,-8.2
4.634,-0.2
4.636,6.6
4.638,-0.8
4.64,-0.4
4.642,1.4
4.644,-0.4
4.646,-1.8
4.648,-4.8
4.65,-10.4
4.652,-5.4
4.654,-3.2
4.656,-2.0
4.658,-1.0
4.66,-2.0
4.662,-3.4
4.664,0.4
4.666,3.8
4.668,-1.0
4.67,-1.6
4.672,1.6
4.674,2.2
4.676,-3.4
4.678,-3.6
4.68,-3.4
4.682,-3.6
4.684,-4.4
4.686,-4.8
4.688,-8.0
4.69,-3.6
4.692,0.8
4.694,1.2
4.696,0.0
4.698,-4.2
4.7,-6.0
4.702,-8.6
4.704,3.6
4.706,-1.0
4.708,-5.4
4.71,0.2
4.712,-1.8
4.714,-2.6
4.716,-1.0
4.718,-1.2
4.72,-4.6
4.722,-4.6
4.724,-5.2
4.726,-6.6
4.728,-3.8
4.73,-1.6
4.732,-1.0
4.734,-1.0
4.736,2.6
4.738,5.2
4.74,3.2
4.742,2.8
4.744,2.0
4.746,4.6
4.748,2.8
4.75,-2.0
4.752,-2.8
4.7540000000000004,-6.2
4.756,-6.8
4.758,-12.4
4.76,0.6
4.7620000000000005,10.4
4.764,17.6
4.766,11.2
4.768,2.4
4.7700000000000005,2.6
4.772,2.8
4.774,5.2
4.776,3.6
4.7780000000000005,3.8
4.78,2.8
4.782,7.8
4.784,12.0
4.7860000000000005,13.0
4.788,14.0
4.79,14.2
4.792,11.8
4.7940000000000005,9.2
4.796,1.0
4.798,10.0
4.8,11.4
4.8020000000000005,13.6
4.804,9.4
4.806,12.8
4.808,17.0
4.8100000000000005,12.2
4.812,9.8
4.814,16.6
4.816,22.2
4.8180000000000005,17.4
4.82,16.2
4.822,13.0
4.824,15.6
4.8260000000000005,19.6
4.828,17.4
4.83,15.2
4.832,17.0
4.8340000000000005,17.0
4.836,14.8
4.838,6.2
4.84,15.6
4.8420000000000005,18.8
4.844,10.8
4.846,10.4
4.848,8.0
4.8500000000000005,-0.6
4.852,-3.2
4.854,-0.4
4.856,1.2
4.8580000000000005,1.6
4.86,4.6
4.862,11.2
4.864,3.6
4.866,1.2
4.868,2.2
4.87,2.0
4.872,0.4
4.874,-4.0
4.876,-3.8
4.878,-0.6
4.88,-2.8
4.882,-9.0
4.884,-8.2
4.886,-4.0
4.888,4.8
4.89,2.4
4.892,2.6
4.894,0.4
4.896,3.0
4.898,-2.0
4.9,-1.8
4.902,1.8
4.904,-1.2
4.906,-1.0
4.908,-1.6
4.91,2.0
4.912,1.6
4.914,1.4
4.916,0.6
4.918,4.0
4.92,3.8
4.922,-1.4
4.924,-2.6
4.926,-2.6
4.928,-6.2
4.93,-3.8
4.932,-0.6
4.934,2.4
4.936,9.4
4.938,13.8
4.94,7.0
4.942,-6.2
4.944,-7.2
4.946,0.6
4.948,-2.8
4.95,-4.6
4.952,-4.6
4.954,-4.0
4.956,-4.0
4.958,-4.8
4.96,-13.6
4.962,-12.0
4.964,-8.0
4.966,-6.4
4.968,-2.8
4.97,-3.4
4.972,1.8
4.974,1.4
4.976,-1.2
4.978,-5.6
4.98,-10.6
4.982,-6.8
4.984,-0.8
4.986,-5.0
4.988,-8.8
4.99,0.8
4.992,-0.2
4.994,-2.2
4.996,-1.0
4.998,-2.6
5.0,-1.6
5.002,-3.2
5.0040000000000004,-6.2
5.006,0.8
5.008,-4.4
5.01,-4.6
5.0120000000000005,-5.6
5.014,-9.8
5.016,-6.2
5.018,-3.8
5.0200000000000005,0.8
5.022,6.0
5.024,7.0
5.026,-1.4
5.0280000000000005,5.0
5.03,1.4
5.032,4.6
5.034,-6.6
5.0360000000000005,-5.4
5.038,-1.2
5.04,-1.2
5.042,-8.4
5.0440000000000005,-7.0
5.046,-2.0
5.048,-9.2
5.05,-12.0
5.0520000000000005,-5.0
5.054,-2.0
5.056,-1.0
5.058,-2.8
5.0600000000000005,-0.6
5.062,-2.4
5.064,3.4
5.066,-0.2
5.0680000000000005,-1.8
5.07,-2.0
5.072,0.0
5.074,-3.0
5.0760000000000005,-3.2
5.078,-6.8
5.08,0.4
5.082,1.2
5.0840000000000005,5.2
5.086,9.8
5.088,12.2
5.09,4.2
5.0920000000000005,-0.6
5.094,-5.6
5.096,-7.8
5.098,-7.2
5.1000000000000005,-9.2
5.102,4.4
5.104,14.2
5.106,4.4
5.1080000000000005,-7.0
5.11,-0.6
5.112,2.6
5.114,8.2
5.1160000000000005,2.0
5.118,-16.4
5.12,-7.8
5.122,-7.0
5.124,-6.2
5.126,0.2
5.128,7.0
5.13,-6.4
5.132,-14.0
5.134,-9.4
5.136,-6.2
5.138,-4.8
5.14,-5.2
5.142,-6.2
5.144,-14.2
5.146,-15.2
5.148,-7.8
5.15,-6.8
5.152,-6.4
5.154,-3.0
5.156,-2.6
5.158,2.2
5.16,-4.0
5.162,-3.0
5.164,-8.8
5.166,-1.8
5.168,-5.0
5.17,-5.4
5.172,-5.6
5.174,-4.6
5.176,-9.2
5.178,-15.0
5.18,-5.2
5.182,2.6
5.184,-2.8
5.186,-15.0
5.188,-13.0
5.19,-11.6
5.192,-13.0
5.194,-9.0
5.196,-4.6
5.198,0.0
5.2,6.0
5.202,9.8
5.204,9.0
5.206,13.2
5.208,18.2
5.21,11.6
5.212,14.2
5.214,22.4
5.216,9.8
5.218,18.4
5.22,21.8
5.222,19.6
5.224,17.2
5.226,13.2
5.228,15.6
5.23,7.4
5.232,1.0
5.234,-2.8
5.236,-7.6
5.238,-7.0
5.24,-7.6
5.242,-6.8
5.244,-3.6
5.246,-2.8
5.248,-4.4
5.25,-12.2
5.252,-7.8
5.2540000000000004,0.2
5.256,-2.6
5.258,-2.8
5.26,-8.0
5.2620000000000005,-11.8
5.264,-9.2
5.266,-7.6
5.268,-8.8
5.2700000000000005,-11.4
5.272,-10.8
5.274,-6.8
5.276,0.8
5.2780000000000005,-0.6
5.28,-6.0
5.282,-4.2
5.284,1.0
5.2860000000000005,-3.6
5.288,-12.8
5.29,-13.2
5.292,0.2
5.2940000000000005,0.2
5.296,1.0
5.298,-3.2
5.3,-5.6
5.3020000000000005,-3.8
5.304,-5.8
5.306,-0.4
5.308,-2.4
5.3100000000000005,-9.8
5.312,-3.8
5.314,5.2
5.316,0.2
5.3180000000000005,-15.8
5.32,-4.8
5.322,-1.4
5.324,-3.8
5.3260000000000005,-8.0
5.328,-5.0
5.33,-4.4
5.332,-4.4
5.3340000000000005,-2.0
5.336,-3.6
5.338,-2.4
5.34,2.8
5.3420000000000005,-3.4
5.344,2.0
5.346,-2.2
5.348,-4.6
5.3500000000000005,-3.8
5.352,-1.6
5.354,-4.8
5.356,-4.4
5.3580000000000005,-3.4
5.36,-4.6
5.362,-3.6
5.364,-6.4
5.3660000000000005,-7.8
5.368,0.0
5.37,3.6
5.372,2.0
5.3740000000000006,-7.6
5.376,-1.8
5.378,-4.2
5.38,2.0
5.382,9.2
5.384,9.0
5.386,12.0
5.388,7.8
5.39,7.0
5.392,1.4
5.394,5.4
5.396,3.8
5.398,2.2
5.4,-7.8
5.402,3.0
5.404,14.6
5.406,18.6
5.408,5.4
5.41,8.8
5.412,4.2
5.414,3.8
5.416,5.2
5.418,2.8
5.42,7.8
5.422,1.8
5.424,8.6
5.426,12.8
5.428,6.0
5.43,8.6
5.432,8.8
5.434,10.6
5.436,12.6
5.438,12.8
5.44,11.8
5.442,16.8
5.444,14.8
5.446,15.2
5.448,10.2
5.45,5.4
5.452,4.8
5.454,9.6
5.456,6.0
5.458,5.4
5.46,8.6
5.462,6.6
5.464,7.2
5.466,6.0
5.468,-2.4
5.47,-8.4
5.472,-3.4
5.474,2.2
5.476,-1.2
5.478,0.2
5.48,-7.2
5.482,-12.0
5.484,-3.6
5.486,4.4
5.488,-9.2
5.49,-9.6
5.492,1.0
5.494,6.8
5.496,8.6
5.498,-7.2
5.5,-9.6
5.502,-7.0
5.5040000000000004,-5.8
5.506,-10.8
5.508,-15.6
5.51,-18.8
5.5120000000000005,-8.6
5.514,-8.8
5.516,-6.8
5.518,-4.4
5.5200000000000005,-5.0
5.522,-8.2
5.524,-2.6
5.526,-5.4
5.5280000000000005,-6.8
5.53,2.0
5.532,7.4
5.534,4.2
5.5360000000000005,-7.2
5.538,-12.2
5.54,-13.2
5.542,-1.8
5.5440000000000005,1.2
5.546,-5.2
5.548,-3.8
5.55,-3.0
5.5520000000000005,-3.0
5.554,-6.8
5.556,-5.2
5.558,2.2
5.5600000000000005,0.0
5.562,-9.0
5.564,-7.4
5.566,-5.6
5.5680000000000005,-3.4
5.57,-6.2
5.572,-12.4
5.574,-6.2
5.5760000000000005,-0.2
5.578,1.0
5.58,0.6
5.582,4.0
5.5840000000000005,-7.6
5.586,-18.4
5.588,-20.4
5.59,-14.2
5.5920000000000005,-5.8
5.594,4.2
5.596,0.6
5.598,0.0
5.6000000000000005,-3.4
5.602,-9.4
5.604,-9.8
5.606,5.2
5.6080000000000005,5.8
5.61,-2.2
5.612,-1.4
5.614,-12.0
5.6160000000000005,-10.0
5.618,-1.4
5.62,-6.0
5.622,-4.2
5.6240000000000006,-6.4
5.626,-2.6
5.628,5.0
5.63,2.8
5.632,-6.2
5.634,-13.2
5.636,-17.2
5.638,-14.0
5.64,-13.6
5.642,-5.8
5.644,1.8
5.646,-3.6
5.648,-1.8
5.65,1.4
5.652,-2.0
5.654,-2.8
5.656,-3.6
5.658,-5.4
5.66,0.4
5.662,3.8
5.664,6.8
5.666,4.6
5.668,-0.4
5.67,-0.8
5.672,-15.8
5.674,-19.0
5.676,-11.2
5.678,-1.2
5.68,3.2
5.682,-1.0
5.684,-0.8
5.686,-6.0
5.688,-5.8
5.69,-3.2
5.692,-1.0
5.694,1.2
5.696,8.8
5.698,5.4
5.7,0.6
5.702,-1.0
5.704,-3.2
5.706,-0.4
5.708,-0.8
5.71,0.8
5.712,-0.8
5.714,-3.0
5.716,-4.0
5.718,-3.2
5.72,-7.4
5.722,-7.6
5.724,0.2
5.726,2.0
5.728,2.4
5.73,0.2
5.732,1.8
5.734,10.0
5.736,-1.4
5.738,-10.4
5.74,-15.2
5.742,-11.0
5.744,-8.2
5.746,-10.6
5.748,-9.6
5.75,2.0
5.752,2.0
5.7540000000000004,0.6
5.756,0.8
5.758,-3.6
5.76,-3.6
5.7620000000000005,-2.0
5.764,1.4
5.766,-3.6
5.768,-5.0
5.7700000000000005,-6.6
5.772,1.0
5.774,-6.6
5.776,-8.8
5.7780000000000005,-11.4
5.78,-15.2
5.782,-20.0
5.784,-11.0
5.7860000000000005,-2.0
5.788,-0.6
5.79,-6.4
5.792,-11.2
5.7940000000000005,-9.0
5.796,0.6
5.798,-0.2
5.8,2.6
5.8020000000000005,3.8
5.804,11.8
5.806,9.0
5.808,14.0
5.8100000000000005,18.0
5.812,15.4
5.814,23.0
5.816,24.4
5.8180000000000005,16.0
5.82,15.8
5.822,20.8
5.824,14.4
5.8260000000000005,6.8
5.828,8.6
5.83,4.2
5.832,-3.6
5.8340000000000005,-6.0
5.836,-5.4
5.838,-0.2
5.84,-3.4
5.8420000000000005,-5.2
5.844,-6.2
5.846,0.6
5.848,1.8
5.8500000000000005,-3.6
5.852,-4.4
5.854,-1.0
5.856,1.2
5.8580000000000005,-3.6
5.86,-4.2
5.862,-8.0
5.864,-2.8
5.8660000000000005,-1.0
5.868,-0.8
5.87,-0.2
5.872,-8.8
5.8740000000000006,-8.8
5.876,-17.8
5.878,-8.4
5.88,-13.0
5.882000000000001,-6.2
5.884,-5.4
5.886,-2.8
5.888,-6.2
5.89,-0.8
5.892,-3.8
5.894,-2.6
5.896,-0.2
5.898,-4.4
5.9,-5.0
5.902,-2.6
5.904,5.2
5.906,1.6
5.908,-2.6
5.91,-7.0
5.912,-3.6
5.914,-0.8
5.916,-4.2
5.918,-5.8
5.92,-2.2
5.922,-2.8
5.924,-4.2
5.926,0.2
5.928,-1.4
5.93,-7.4
5.932,-8.2
5.934,-0.6
5.936,6.8
5.938,3.6
5.94,-4.8
5.942,-0.2
5.944,-0.8
5.946,-2.4
5.948,-2.0
5.95,-8.4
5.952,-15.0
5.954,3.4
5.956,-0.6
5.958,-4.6
5.96,-2.6
5.962,4.4
5.964,4.2
5.966,-0.8
5.968,-11.8
5.97,-5.0
5.972,-2.2
5.974,6.2
5.976,6.2
5.978,-0.4
5.98,-1.8
5.982,-4.6
5.984,1.8
5.986,4.0
5.988,12.2
5.99,11.2
5.992,4.2
5.994,3.8
5.996,2.8
5.998,1.8
6.0,2.8
6.002,6.4
6.0040000000000004,4.4
6.006,4.6
6.008,15.0
6.01,17.2
6.0120000000000005,19.2
6.014,13.8
6.016,15.0
6.018,12.4
6.0200000000000005,9.2
6.022,8.0
6.024,7.2
6.026,5.8
6.0280000000000005,9.2
6.03,12.6
6.032,17.8
6.034,14.2
6.0360000000000005,7.8
6.038,13.2
6.04,16.0
6.042,18.8
6.0440000000000005,8.8
6.046,7.0
6.048,15.2
6.05,12.0
6.0520000000000005,1.8
6.054,-1.0
6.056,6.6
6.058,14.0
6.0600000000000005,7.2
6.062,-2.0
6.064,2.6
6.066,3.4
6.0680000000000005,2.4
6.07,10.4
6.072,11.2
6.074,0.6
6.0760000000000005,1.6
6.078,2.0
6.08,0.0
6.082,1.0
6.0840000000000005,-0.2
6.086,-0.8
6.088,-2.0
6.09,-11.0
6.0920000000000005,-13.2
6.094,-7.8
6.096,-8.6
6.098,-2.8
6.1000000000000005,-0.8
6.102,5.6
6.104,6.2
6.106,7.4
6.1080000000000005,3.8
6.11,-0.4
6.112,3.0
6.114,-1.8
6.1160000000000005,-3.4
6.118,1.0
6.12,-1.0
6.122,-5.4
6.1240000000000006,-5.8
6.126,-1.8
6.128,-6.8
6.13,-5.2
6.132000000000001,-5.0
6.134,-2.4
6.136,-2.2
6.138,-3.0
6.140000000000001,-5.6
6.142,-13.4
6.144,-12.0
6.146,-7.6
6.148,-4.0
6.15,-7.4
6.152,2.2
6.154,-0.2
6.156,-1.6
6.158,-3.6
6.16,-0.6
6.162,0.8
6.164,-1.8
6.166,3.2
6.168,0.4
6.17,-5.2
6.172,-3.8
6.174,-8.4
6.176,1.4
6.178,-1.0
6.18,-2.0
6.182,2.8
6.184,-3.4
6.186,-12.2
6.188,-7.0
6.19,-7.0
6.192,-9.0
6.194,0.0
6.196,-0.6
6.198,-10.6
6.2,-3.0
6.202,1.0
6.204,-5.0
6.206,-6.6
6.208,-0.4
6.21,4.2
6.212,3.4
6.214,5.4
6.216,-6.4
6.218,-6.4
6.22,4.4
6.222,-1.6
6.224,-1.4
6.226,-7.4
6.228,-14.0
6.23,-13.2
6.232,-6.2
6.234,-2.0
6.236,5.0
6.238,3.6
6.24,1.8
6.242,0.2
6.244,0.4
6.246,-2.2
6.248,-6.2
6.25,-1.6
6.252,1.2
6.2540000000000004,-2.8
6.256,-2.2
6.258,-3.2
6.26,4.4
6.2620000000000005,9.0
6.264,7.6
6.266,5.6
6.268,8.0
6.2700000000000005,-1.6
6.272,-6.0
6.274,-10.8
6.276,-6.6
6.2780000000000005,1.8
6.28,6.8
6.282,1.6
6.284,1.2
6.2860000000000005,-5.2
6.288,-1.4
6.29,-7.2
6.292,-10.2
6.2940000000000005,-2.0
6.296,5.2
6.298,8.8
6.3,4.2
6.3020000000000005,-0.4
6.304,2.0
6.306,1.2
6.308,4.6
6.3100000000000005,5.4
6.312,0.8
6.314,-2.6
6.316,-4.4
6.3180000000000005,1.4
6.32,-4.6
6.322,-5.8
6.324,-6.4
6.3260000000000005,-1.8
6.328,2.4
6.33,2.2
6.332,-3.4
6.3340000000000005,-1.8
6.336,-3.2
6.338,-8.2
6.34,-11.0
6.3420000000000005,-9.8
6.344,-1.2
6.346,-3.2
6.348,-2.4
6.3500000000000005,-3.0
6.352,-6.8
6.354,-2.6
6.356,-6.8
6.3580000000000005,-13.0
6.36,-1.8
6.362,-1.0
6.364,-3.6
6.3660000000000005,-0.6
6.368,-0.2
6.37,-0.6
6.372,-1.4
6.3740000000000006,-1.4
6.376,-2.2
6.378,-10.6
6.38,-9.6
6.382000000000001,-3.6
6.384,-7.8
6.386,-10.6
6.388,-10.4
6.390000000000001,-4.8
6.392,-7.0
6.394,-5.2
6.396,-3.8
6.398000000000001,1.2
6.4,-2.4
6.402,5.4
6.404,13.2
6.406,17.0
6.408,33.2
6.41,22.8
6.412,24.4
6.414,23.2
6.416,22.4
6.418,23.2
6.42,18.0
6.422,11.2
6.424,10.6
6.426,2.6
6.428,4.4
6.43,5.4
6.432,4.6
6.434,5.6
6.436,4.2
6.438,4.6
6.44,0.8
6.442,-5.4
6.444,-10.0
6.446,-6.4
6.448,-5.8
6.45,-10.4
6.452,-10.8
6.454,-18.2
6.456,-15.0
6.458,-9.4
6.46,-11.4
6.462,-10.0
6.464,-0.6
6.466,-0.8
6.468,5.2
6.47,6.0
6.472,5.2
6.474,-2.6
6.476,1.2
6.478,-0.2
6.48,4.2
6.482,1.6
6.484,-3.4
6.486,-6.2
6.488,-8.8
6.49,-5.6
6.492,0.0
6.494,-2.0
6.496,5.0
6.498,-2.6
6.5,-2.6
6.502,-7.2
6.5040000000000004,-7.4
6.506,-4.4
6.508,3.4
6.51,6.8
6.5120000000000005,-5.0
6.514,-15.8
6.516,-11.6
6.518,-14.6
6.5200000000000005,-13.6
6.522,-7.4
6.524,-1.2
6.526,-1.2
6.5280000000000005,-1.4
6.53,-0.6
6.532,-1.4
6.534,-4.2
6.5360000000000005,2.0
6.538,8.8
6.54,4.0
6.542,-6.0
6.5440000000000005,-10.2
6.546,-19.8
6.548,-4.8
6.55,-5.8
6.5520000000000005,1.0
6.554,-8.4
6.556,0.0
6.558,-9.2
6.5600000000000005,-8.4
6.562,14.6
6.564,13.0
6.566,6.4
6.5680000000000005,9.6
6.57,10.0
6.572,3.6
6.574,-5.6
6.5760000000000005,-10.2
6.578,-3.6
6.58,-2.4
6.582,2.6
6.5840000000000005,8.2
6.586,7.2
6.588,11.2
6.59,7.0
6.5920000000000005,4.6
6.594,4.8
6.596,9.4
6.598,8.8
6.6000000000000005,11.8
6.602,8.0
6.604,2.4
6.606,0.6
6.6080000000000005,-0.8
6.61,7.0
6.612,10.4
6.614,8.0
6.6160000000000005,12.4
6.618,11.4
6.62,16.4
6.622,12.4
6.6240000000000006,12.0
6.626,11.2
6.628,18.8
6.63,21.0
6.632000000000001,18.2
6.634,12.4
6.636,12.0
6.638,15.0
6.640000000000001,11.2
6.642,7.0
6.644,-1.0
6.646,-1.0
6.648000000000001,9.8
6.65,12.8
6.652,9.8
6.654,10.6
6.656000000000001,3.4
6.658,-3.8
6.66,3.2
6.662,7.2
6.664,10.6
6.666,10.4
6.668,5.0
6.67,1.2
6.672,-8.6
6.674,-3.4
6.676,-5.4
6.678,-7.8
6.68,-4.2
6.682,0.4
6.684,3.0
6.686,-1.2
6.688,-2.8
6.69,7.0
6.692,-1.8
6.694,-10.2
6.696,-17.8
6.698,-5.2
6.7,-4.2
6.702,-3.0
6.704,-1.8
6.706,0.2
6.708,1.0
6.71,-6.2
6.712,-9.6
6.714,-6.2
6.716,-6.4
6.718,-4.8
6.72,0.8
6.722,2.8
6.724,-4.0
6.726,1.0
6.728,-0.4
6.73,-2.4
6.732,-5.2
6.734,-4.6
6.736,-4.2
6.738,-2.2
6.74,2.2
6.742,3.6
6.744,3.0
6.746,3.4
6.748,-3.2
6.75,-1.2
6.752,-1.8
6.7540000000000004,-4.6
6.756,0.2
6.758,-13.6
6.76,-13.2
6.7620000000000005,-12.0
6.764,-6.0
6.766,2.0
6.768,2.4
6.7700000000000005,-4.2
6.772,-11.4
6.774,-8.6
6.776,-7.2
6.7780000000000005,-1.4
6.78,-3.4
6.782,-5.4
6.784,-7.4
6.7860000000000005,-7.8
6.788,-2.4
6.79,3.4
6.792,-1.6
6.7940000000000005,1.6
6.796,5.2
6.798,-1.2
6.8,-3.6
6.8020000000000005,-0.4
6.804,-6.8
6.806,-9.0
6.808,1.8
6.8100000000000005,-2.2
6.812,-11.8
6.814,-9.2
6.816,-6.2
6.8180000000000005,-1.4
6.82,-1.2
6.822,3.6
6.824,-3.8
6.8260000000000005,-6.0
6.828,-11.4
6.83,2.0
6.832,-2.4
6.8340000000000005,-11.4
6.836,-7.8
6.838,6.0
6.84,0.4
6.8420000000000005,-2.2
6.844,6.4
6.846,7.0
6.848,3.6
6.8500000000000005,4.0
6.852,1.6
6.854,-4.6
6.856,-7.6
6.8580000000000005,-0.6
6.86,-0.6
6.862,-5.0
6.864,-10.4
6.8660000000000005,-6.0
6.868,-4.6
6.87,-12.8
6.872,-2.6
6.8740000000000006,8.4
6.876,7.2
6.878,5.2
6.88,5.6
6.882000000000001,2.4
6.884,-0.6
6.886,-4.2
6.888,-2.2
6.890000000000001,4.0
6.892,5.0
6.894,8.8
6.896,10.8
6.898000000000001,0.6
6.9,-8.0
6.902,-8.8
6.904,-4.8
6.906000000000001,-2.4
6.908,-2.0
6.91,-3.2
6.912,-2.0
6.914,1.6
6.916,-1.4
6.918,-7.6
6.92,-10.4
6.922,-8.4
6.924,-8.8
6.926,-7.2
6.928,2.8
6.93,3.8
6.932,5.2
6.934,4.2
6.936,1.0
6.938,-10.6
6.94,-10.2
6.942,-9.6
6.944,-2.0
6.946,-2.4
6.948,-2.8
6.95,-5.8
6.952,1.8
6.954,3.6
6.956,3.2
6.958,-6.0
6.96,-10.8
6.962,-6.4
6.964,-7.8
6.966,-9.6
6.968,-11.8
6.97,-2.8
6.972,-2.2
6.974,-5.6
6.976,-7.6
6.978,-7.2
6.98,-3.0
6.982,-6.0
6.984,-9.2
6.986,-3.6
6.988,-2.0
6.99,-0.6
6.992,4.0
6.994,3.2
6.996,0.4
6.998,3.2
7.0,6.0
7.002,11.2
7.0040000000000004,17.2
7.006,14.8
7.008,23.0
7.01,22.8
7.0120000000000005,25.4
7.014,25.6
7.016,20.4
7.018,13.4
7.0200000000000005,3.4
7.022,-2.8
7.024,3.4
7.026,7.4
7.0280000000000005,2.2
7.03,-4.0
7.032,3.0
7.034,4.2
7.0360000000000005,-3.4
7.038,-6.2
7.04,-5.6
7.042,-4.6
7.0440000000000005,-3.8
7.046,-0.4
7.048,1.0
7.05,-2.2
7.0520000000000005,-2.0
7.054,-8.8
7.056,-11.6
7.058,-7.8
7.0600000000000005,-6.4
7.062,-2.6
7.064,-7.0
7.066,-8.4
7.0680000000000005,-4.6
7.07,-4.2
7.072,-8.8
7.074,-14.8
7.0760000000000005,-4.4
7.078,-7.0
7.08,-6.0
7.082,-1.0
7.0840000000000005,-3.8
7.086,-1.6
7.088,-1.4
7.09,-2.8
7.0920000000000005,-5.0
7.094,-2.4
7.096,-1.4
7.098,0.0
7.1000000000000005,-1.6
7.102,-1.2
7.104,0.6
7.106,-2.0
7.1080000000000005,0.2
7.11,-2.4
7.112,-4.0
7.114,-15.2
7.1160000000000005,-14.2
7.118,0.4
7.12,3.4
7.122,3.0
7.1240000000000006,-6.4
7.126,-12.0
7.128,-9.6
7.13,-5.6
7.132000000000001,-3.6
7.134,-4.6
7.136,-6.6
7.138,-3.4
7.140000000000001,1.4
7.142,4.2
7.144,7.8
7.146,5.0
7.148000000000001,1.4
7.15,-5.0
7.152,-1.0
7.154,1.2
7.156000000000001,0.4
7.158,-1.6
7.16,-2.4
7.162,1.6
7.164000000000001,0.4
7.166,-2.4
7.168,-11.6
7.17,-6.4
7.172,-1.2
7.174,-0.8
7.176,1.6
7.178,4.4
7.18,5.4
7.182,4.2
7.184,3.8
7.186,3.6
7.188,2.2
7.19,6.0
7.192,7.2
7.194,7.0
7.196,10.6
7.198,0.4
7.2,1.8
7.202,9.8
7.204,7.4
7.206,10.2
7.208,14.6
7.21,15.8
7.212,18.0
7.214,20.2
7.216,18.8
7.218,19.0
7.22,14.0
7.222,2.4
7.224,-3.6
7.226,-9.8
7.228,9.6
7.23,18.4
7.232,15.8
7.234,14.2
7.236,11.6
7.238,8.8
7.24,11.8
7.242,10.6
7.244,8.4
7.246,12.8
7.248,8.8
7.25,7.0
7.252,7.0
7.2540000000000004,9.0
7.256,3.8
7.258,2.6
7.26,-1.2
7.2620000000000005,-5.6
7.264,-0.2
7.266,3.2
7.268,-1.8
7.2700000000000005,0.4
7.272,10.4
7.274,6.0
7.276,2.4
7.2780000000000005,5.6
7.28,2.4
7.282,-3.4
7.284,-4.2
7.2860000000000005,-8.8
7.288,-8.4
7.29,-8.0
7.292,-7.0
7.2940000000000005,-6.6
7.296,-8.4
7.298,-5.2
7.3,-5.0
7.3020000000000005,-2.0
7.304,-4.4
7.306,-2.0
7.308,0.8
7.3100000000000005,1.6
7.312,0.2
7.314,2.8
7.316,-0.2
7.3180000000000005,-0.6
7.32,-6.2
7.322,-11.2
7.324,-15.6
7.3260000000000005,-20.6
7.328,-13.6
7.33,2.0
7.332,4.4
7.3340000000000005,4.8
7.336,6.6
7.338,2.4
7.34,-0.6
7.3420000000000005,-4.2
7.344,-7.6
7.346,-0.6
7.348,-8.2
7.3500000000000005,-13.6
7.352,-11.4
7.354,-4.0
7.356,-3.8
7.3580000000000005,-2.8
7.36,-3.2
7.362,-1.8
7.364,-2.4
7.3660000000000005,-6.8
7.368,-8.6
7.37,-6.2
7.372,-2.6
7.3740000000000006,-2.8
7.376,-1.2
7.378,-4.8
7.38,-9.8
7.382000000000001,-7.2
7.384,-6.6
7.386,-6.0
7.388,-1.8
7.390000000000001,-3.2
7.392,-10.6
7.394,-7.8
7.396,-1.2
7.398000000000001,-3.0
7.4,-1.2
7.402,1.2
7.404,2.6
7.406000000000001,-1.2
7.408,-2.2
7.41,-1.0
7.412,-1.0
7.414000000000001,-2.2
7.416,-4.4
7.418,-3.0
7.42,-3.8
7.422000000000001,-6.2
7.424,-8.8
7.426,-6.0
7.428,-8.0
7.43,-7.4
7.432,-3.4
7.434,-3.2
7.436,-2.4
7.438,-1.6
7.44,2.2
7.442,2.4
7.444,-2.8
7.446,-1.4
7.448,-0.6
7.45,-3.2
7.452,-9.8
7.454,-9.0
7.456,-9.2
7.458,-11.2
7.46,-4.8
7.462,1.8
7.464,-1.6
7.466,-3.0
7.468,-3.6
7.47,-6.4
7.472,1.8
7.474,0.6
7.476,1.8
7.478,6.0
7.48,-1.8
7.482,-4.2
7.484,-1.2
7.486,-1.0
7.488,-2.6
7.49,-2.8
7.492,-0.4
7.494,-0.6
7.496,-5.0
7.498,-6.2
7.5,-3.2
7.502,2.4
7.5040000000000004,-0.6
7.506,-2.0
7.508,-0.4
7.51,-3.8
7.5120000000000005,-2.4
7.514,2.4
7.516,6.2
7.518,12.4
7.5200000000000005,12.0
7.522,7.2
7.524,4.4
7.526,-4.0
7.5280000000000005,-11.0
7.53,-2.0
7.532,-2.2
7.534,-0.6
7.5360000000000005,-5.2
7.538,-3.8
7.54,-5.2
7.542,-14.4
7.5440000000000005,-22.4
7.546,-17.0
7.548,-12.2
7.55,-1.4
7.5520000000000005,-5.6
7.554,-10.2
7.556,-8.0
7.558,-1.2
7.5600000000000005,8.0
7.562,8.2
7.564,-0.6
7.566,-3.8
7.5680000000000005,-7.4
7.57,-6.8
7.572,-2.4
7.574,0.6
7.5760000000000005,-3.6
7.578,-7.8
7.58,-9.4
7.582,-8.0
7.5840000000000005,-7.4
7.586,-8.6
7.588,-8.6
7.59,-3.0
7.5920000000000005,-4.8
7.594,-7.8
7.596,-16.4
7.598,-25.4
7.6000000000000005,-5.6
7.602,3.0
7.604,-1.0
7.606,3.0
7.6080000000000005,13.4
7.61,16.6
7.612,11.8
7.614,12.4
7.6160000000000005,21.6
7.618,21.0
7.62,18.6
7.622,21.6
7.6240000000000006,28.4
7.626,27.6
7.628,20.2
7.63,13.2
7.632000000000001,10.4
7.634,4.2
7.636,-6.8
7.638,-20.2
7.640000000000001,-15.4
7.642,-5.8
7.644,-8.4
7.646,-9.0
7.648000000000001,-4.8
7.65,-3.6
7.652,-0.8
7.654,3.2
7.656000000000001,1.2
7.658,-1.8
7.66,-2.6
7.662,-1.4
7.664000000000001,-2.0
7.666,-7.8
7.668,-16.4
7.67,-10.4
7.672000000000001,0.8
7.674,-3.8
7.676,-4.2
7.678,-4.4
7.68,-1.2
7.682,-0.4
7.684,1.6
7.686,-8.0
7.688,-11.0
7.69,-4.6
7.692,1.8
7.694,-8.6
7.696,2.0
7.698,5.6
7.7,-0.6
7.702,-7.2
7.704,-1.2
7.706,-4.0
7.708,-7.6
7.71,-7.4
7.712,-4.2
7.714,-4.4
7.716,-7.2
7.718,-10.2
7.72,-19.4
7.722,-6.2
7.724,2.2
7.726,7.8
7.728,10.4
7.73,-1.6
7.732,0.0
7.734,-2.8
7.736,-6.6
7.738,-9.4
7.74,-10.4
7.742,-11.8
7.744,2.4
7.746,0.6
7.748,3.0
7.75,2.4
7.752,-1.0
7.7540000000000004,-1.6
7.756,-5.6
7.758,-6.0
7.76,-4.8
7.7620000000000005,-5.8
7.764,-0.8
7.766,2.8
7.768,1.6
7.7700000000000005,-0.2
7.772,-0.2
7.774,-1.6
7.776,2.0
7.7780000000000005,1.6
7.78,-0.4
7.782,-4.2
7.784,2.2
7.7860000000000005,-2.6
7.788,8.8
7.79,6.6
7.792,-0.6
7.7940000000000005,-2.2
7.796,0.0
7.798,5.2
7.8,5.6
7.8020000000000005,4.0
7.804,3.8
7.806,9.2
7.808,2.0
7.8100000000000005,-2.4
7.812,6.4
7.814,9.2
7.816,7.4
7.8180000000000005,8.4
7.82,9.2
7.822,21.8
7.824,16.8
7.8260000000000005,10.8
7.828,11.0
7.83,17.2
7.832,11.6
7.8340000000000005,7.0
7.836,4.8
7.838,16.4
7.84,12.8
7.8420000000000005,11.6
7.844,12.0
7.846,9.4
7.848,6.2
7.8500000000000005,2.0
7.852,1.8
7.854,6.0
7.856,22.6
7.8580000000000005,20.0
7.86,15.8
7.862,11.4
7.864,13.2
7.8660000000000005,8.6
7.868,4.8
7.87,5.6
7.872,2.4
7.8740000000000006,-3.6
7.876,-3.8
7.878,-3.0
7.88,-1.4
7.882000000000001,2.6
7.884,5.0
7.886,-2.6
7.888,-4.6
7.890000000000001,-6.8
7.892,-6.0
7.894,-4.8
7.896,-11.2
7.898000000000001,-6.0
7.9,3.8
7.902,2.4
7.904,3.0
7.906000000000001,-3.6
7.908,-6.0
7.91,3.8
7.912,4.6
7.914000000000001,-3.2
7.916,-12.8
7.918,-5.6
7.92,-0.4
7.922000000000001,2.6
7.924,-6.0
7.926,-7.2
7.928,0.6
7.930000000000001,-4.0
7.932,-4.4
7.934,-8.4
7.936,-3.8
7.938,-3.8
7.94,-6.2
7.942,-3.6
7.944,-7.2
7.946,-12.2
7.948,-11.6
7.95,1.2
7.952,-1.6
7.954,-4.2
7.956,-1.6
7.958,-5.6
7.96,-4.8
7.962,-2.4
7.964,2.0
7.966,-4.2
7.968,-12.4
7.97,-8.8
7.972,1.2
7.974,0.6
7.976,-1.4
7.978,-4.4
7.98,-4.6
7.982,-7.0
7.984,-12.2
7.986,-6.8
7.988,-1.2
7.99,-2.8
7.992,-4.8
7.994,-2.6
7.996,-6.4
7.998,-4.4
8.0,-0.4
8.002,-2.8
8.004,-4.6
8.006,-5.2
8.008000000000001,-5.4
8.01,-11.2
8.012,-11.8
8.014,-0.6
8.016,-7.6
8.018,-7.2
8.02,-7.4
8.022,-4.8
8.024000000000001,-4.4
8.026,-1.8
8.028,2.8
8.03,5.0
8.032,5.2
8.034,1.0
8.036,-7.4
8.038,-14.8
8.040000000000001,-16.8
8.042,-5.6
8.044,-5.0
8.046,-1.0
8.048,3.8
8.05,-1.0
8.052,-2.0
8.054,-1.6
8.056000000000001,-6.4
8.058,-8.6
8.06,-4.4
8.062,-1.2
8.064,-2.6
8.066,-5.6
8.068,-4.6
8.07,-5.4
8.072000000000001,-1.4
8.074,-4.6
8.076,-3.8
8.078,0.0
8.08,-0.6
8.082,-2.6
8.084,-4.0
8.086,-6.0
8.088000000000001,-12.0
8.09,-11.0
8.092,-2.4
8.094,2.6
8.096,0.4
8.098,7.0
8.1,2.2
8.102,3.2
8.104000000000001,-2.0
8.106,-3.0
8.108,-4.8
8.11,-7.0
8.112,-7.4
8.114,4.8
8.116,9.2
8.118,2.4
8.120000000000001,-1.8
8.122,3.0
8.124,-6.0
8.126,-4.6
8.128,-9.0
8.13,-7.2
8.132,1.0
8.134,-1.4
8.136000000000001,0.8
8.138,-5.0
8.14,-4.2
8.142,-2.8
8.144,-2.4
8.146,-3.0
8.148,-7.2
8.15,-5.8
8.152000000000001,-6.2
8.154,-4.6
8.156,3.8
8.158,-7.4
8.16,-5.4
8.162,-0.2
8.164,-3.8
8.166,-12.0
8.168000000000001,-10.4
8.17,-11.2
8.172,-6.2
8.174,-11.0
8.176,-5.8
8.178,-6.8
8.18,-4.2
8.182,-3.2
8.184000000000001,-8.8
8.186,-3.4
8.188,-3.8
8.19,-5.8
8.192,-8.8
8.194,-7.6
8.196,-6.2
8.198,-7.8
8.2,-6.4
8.202,-7.4
8.204,-5.8
8.206,-4.0
8.208,-13.2
8.21,-13.8
8.212,-15.8
8.214,-6.0
8.216,-2.2
8.218,10.4
8.22,13.0
8.222,15.4
8.224,16.8
8.226,20.0
8.228,17.4
8.23,12.8
8.232,10.8
8.234,19.2
8.236,20.0
8.238,19.0
8.24,20.4
8.242,10.0
8.244,9.0
8.246,3.0
8.248,0.6
8.25,-3.0
8.252,-18.2
8.254,-25.6
8.256,-18.6
8.258000000000001,-5.8
8.26,-2.4
8.262,1.6
8.264,-5.0
8.266,-11.4
8.268,-10.0
8.27,0.2
8.272,1.2
8.274000000000001,-8.6
8.276,-13.4
8.278,-12.8
8.28,-7.0
8.282,-3.8
8.284,3.0
8.286,1.4
8.288,-4.2
8.290000000000001,-7.0
8.292,-10.2
8.294,-11.4
8.296,-10.8
8.298,-19.2
8.3,-20.4
8.302,-4.2
8.304,-6.0
8.306000000000001,-4.0
8.308,-8.2
8.31,-10.2
8.312,-4.2
8.314,-8.0
8.316,-1.6
8.318,2.4
8.32,-8.6
8.322000000000001,-16.4
8.324,-16.2
8.326,-9.4
8.328,-5.8
8.33,-6.6
8.332,-1.6
8.334,-4.2
8.336,-5.6
8.338000000000001,-13.8
8.34,-13.4
8.342,0.2
8.344,-1.0
8.346,1.0
8.348,-6.2
8.35,-6.0
8.352,-3.4
8.354000000000001,1.0
8.356,7.4
8.358,4.2
8.36,1.2
8.362,-1.6
8.364,-5.2
8.366,-5.2
8.368,-0.2
8.370000000000001,4.0
8.372,-5.8
8.374,-2.4
8.376,-6.6
8.378,-9.8
8.38,-6.6
8.382,-3.2
8.384,-1.2
8.386000000000001,-1.0
8.388,4.0
8.39,1.2
8.392,-3.6
8.394,-2.4
8.396,-6.6
8.398,1.2
8.4,-0.8
8.402000000000001,1.6
8.404,1.0
8.406,-2.2
8.408,4.2
8.41,9.0
8.412,6.8
8.414,9.8
8.416,11.0
8.418000000000001,11.8
8.42,4.8
8.422,-4.6
8.424,6.2
8.426,13.0
8.428,3.6
8.43,4.2
8.432,13.4
8.434000000000001,13.2
8.436,14.4
8.438,9.0
8.44,7.2
8.442,3.2
8.444,3.0
8.446,6.2
8.448,13.4
8.45,8.6
8.452,10.2
8.454,12.4
8.456,9.2
8.458,16.0
8.46,15.2
8.462,14.2
8.464,18.2
8.466,16.0
8.468,18.8
8.47,14.0
8.472,11.6
8.474,7.4
8.476,-0.2
8.478,-2.8
8.48,1.2
8.482,4.8
8.484,5.4
8.486,6.8
8.488,4.8
8.49,-7.6
8.492,-11.8
8.494,-11.8
8.496,-5.8
8.498,0.0
8.5,-2.4
8.502,-3.0
8.504,1.4
8.506,-0.2
8.508000000000001,-1.8
8.51,-5.0
8.512,-0.2
8.514,-0.6
8.516,-8.6
8.518,-13.2
8.52,-9.6
8.522,-3.2
8.524000000000001,-11.6
8.526,-12.4
8.528,-11.6
8.53,-8.0
8.532,-7.8
8.534,-7.2
8.536,-5.6
8.538,0.0
8.540000000000001,-4.8
8.542,-4.6
8.544,-4.4
8.546,-7.4
8.548,-5.8
8.55,-3.4
8.552,-1.0
8.554,-5.8
8.556000000000001,-4.6
8.558,-8.0
8.56,-7.4
8.562,-7.8
8.564,-1.0
8.566,-3.8
8.568,-2.4
8.57,-2.6
8.572000000000001,-12.4
8.574,-11.6
8.576,-11.6
8.578,-12.6
8.58,-18.6
8.582,-5.2
8.584,1.4
8.586,-1.6
8.588000000000001,2.2
8.59,-1.2
8.592,-1.6
8.594,-4.2
8.596,-2.6
8.598,-5.4
8.6,-5.8
8.602,-9.8
8.604000000000001,-4.6
8.606,-7.0
8.608,-2.6
8.61,-1.6
8.612,1.8
8.614,-6.0
8.616,-8.8
8.618,-4.4
8.620000000000001,-7.4
8.622,-6.0
8.624,-10.8
8.626,-17.2
8.628,-13.6
8.63,-13.4
8.632,-4.6
8.634,-4.6
8.636000000000001,-9.8
8.638,-6.4
8.64,-3.6
8.642,-3.2
8.644,-5.6
8.646,-12.4
8.648,-13.0
8.65,-1.4
8.652000000000001,-0.4
8.654,-3.2
8.656,-3.8
8.658,-5.8
8.66,-6.4
8.662,-7.2
8.664,-4.6
8.666,-6.4
8.668000000000001,-9.0
8.67,-5.8
8.672,-3.4
8.674,-3.0
8.676,-2.4
8.678,-8.0
8.68,-10.4
8.682,-5.8
8.684000000000001,-8.6
8.686,-5.2
8.688,-0.8
8.69,-6.2
8.692,-4.2
8.694,-5.8
8.696,-7.6
8.698,-6.0
8.700000000000001,-5.8
8.702,-12.0
8.704,-18.2
8.706,-15.6
8.708,2.6
8.71,0.6
8.712,-1.6
8.714,-6.0
8.716,-4.2
8.718,-1.8
8.72,0.8
8.722,2.4
8.724,-3.2
8.726,-6.4
8.728,-3.4
8.73,-11.0
8.732,-2.2
8.734,-9.4
8.736,-3.2
8.738,-3.0
8.74,-3.4
8.742,-5.0
8.744,-5.2
8.746,-6.4
8.748,-2.8
8.75,-2.2
8.752,5.0
8.754,2.0
8.756,-5.2
8.758000000000001,-5.2
8.76,-6.0
8.762,-4.4
8.764,-0.2
8.766,2.2
8.768,3.2
8.77,5.8
8.772,6.0
8.774000000000001,5.0
8.776,0.4
8.778,2.6
8.78,3.8
8.782,1.2
8.784,-5.2
8.786,-9.6
8.788,-9.8
8.790000000000001,-11.0
8.792,-12.4
8.794,-13.6
8.796,-11.4
8.798,-4.6
8.8,-3.6
8.802,-3.4
8.804,-4.0
8.806000000000001,0.4
8.808,-5.2
8.81,-9.8
8.812,-6.8
8.814,-8.8
8.816,-8.0
8.818,-13.8
8.82,-15.2
8.822000000000001,-13.2
8.824,-14.8
8.826,-19.8
8.828,-4.4
8.83,-6.6
8.832,-10.4
8.834,-8.6
8.836,-11.6
8.838000000000001,-4.4
8.84,-4.8
8.842,-7.6
8.844,-9.0
8.846,-6.6
8.848,-2.2
8.85,-0.2
8.852,-6.6
8.854000000000001,-10.4
8.856,-10.0
8.858,-5.0
8.86,-2.8
8.862,3.0
8.864,7.6
8.866,12.6
8.868,13.8
8.870000000000001,24.0
8.872,30.2
8.874,27.2
8.876,25.0
8.878,23.6
8.88,29.0
8.882,22.2
8.884,11.4
8.886000000000001,1.6
8.888,-4.0
8.89,-5.2
8.892,-7.8
8.894,-13.4
8.896,-22.2
8.898,-24.2
8.9,-25.2
8.902000000000001,-21.0
8.904,-25.0
8.906,-18.2
8.908,-15.0
8.91,-11.2
8.912,-7.8
8.914,-6.8
8.916,-4.6
8.918000000000001,0.4
8.92,-0.6
8.922,-7.4
8.924,-16.2
8.926,-14.2
8.928,-7.4
8.93,-7.8
8.932,-10.0
8.934000000000001,-11.0
8.936,-7.6
8.938,-1.4
8.94,-5.4
8.942,-14.4
8.944,-7.0
8.946,-3.2
8.948,-7.4
8.950000000000001,-5.6
8.952,-6.8
8.954,-8.8
8.956,-0.4
8.958,-9.4
8.96,-9.6
8.962,-7.6
8.964,-10.0
8.966,-6.4
8.968,-5.8
8.97,-5.8
8.972,-8.4
8.974,-8.4
8.976,-11.8
8.978,-10.2
8.98,-3.0
8.982,-3.4
8.984,-2.6
8.986,-0.2
8.988,-2.2
8.99,-6.2
8.992,-8.8
8.994,-7.6
8.996,-2.4
8.998,-6.2
9.0,-3.6
9.002,-1.8
9.004,-3.4
9.006,-2.8
9.008000000000001,-5.0
9.01,-5.0
9.012,-5.8
9.014,-4.8
9.016,-8.6
9.018,-4.2
9.02,-6.2
9.022,-5.6
9.024000000000001,-5.0
9.026,-1.0
9.028,-1.8
9.03,5.0
9.032,6.8
9.034,3.0
9.036,-2.8
9.038,0.2
9.040000000000001,0.6
9.042,1.6
9.044,0.4
9.046,2.6
9.048,3.6
9.05,2.0
9.052,2.4
9.054,2.4
9.056000000000001,1.8
9.058,7.4
9.06,7.2
9.062,5.8
9.064,3.2
9.066,-1.6
9.068,3.2
9.07,11.4
9.072000000000001,11.4
9.074,9.0
9.076,5.8
9.078,7.0
9.08,9.6
9.082,6.4
9.084,4.6
9.086,10.4
9.088000000000001,6.4
9.09,17.0
9.092,17.4
9.094,18.0
9.096,14.0
9.098,9.4
9.1,12.6
9.102,13.8
9.104000000000001,15.0
9.106,11.4
9.108,16.0
9.11,15.2
9.112,13.0
9.114,14.8
9.116,15.2
9.118,14.4
9.120000000000001,11.8
9.122,10.0
9.124,4.6
9.126,7.2
9.128,6.6
9.13,-3.0
9.132,-5.0
9.134,-0.4
9.136000000000001,0.6
9.138,3.6
9.14,3.0
9.142,6.4
9.144,5.6
9.146,-1.0
9.148,-2.2
9.15,-1.8
9.152000000000001,-5.2
9.154,-9.6
9.156,-12.2
9.158,-12.0
9.16,-5.4
9.162,-4.2
9.164,-7.6
9.166,-6.8
9.168000000000001,-3.0
9.17,-4.8
9.172,-1.8
9.174,-0.2
9.176,-0.8
9.178,-5.0
9.18,-7.6
9.182,-4.2
9.184000000000001,-4.6
9.186,-4.8
9.188,-7.8
9.19,-8.0
9.192,-8.0
9.194,-9.0
9.196,-6.2
9.198,-8.4
9.200000000000001,-7.0
9.202,-5.4
9.204,-8.0
9.206,-7.6
9.208,-5.2
9.21,-2.2
9.212,-1.2
9.214,-5.2
9.216000000000001,-8.0
9.218,-7.4
9.22,-4.8
9.222,-2.4
9.224,-4.6
9.226,-5.6
9.228,-10.0
9.23,-14.6
9.232,-10.8
9.234,-7.2
9.236,-3.6
9.238,-2.6
9.24,-0.4
9.242,-7.4
9.244,-10.4
9.246,-9.0
9.248,-9.0
9.25,-4.4
9.252,-5.4
9.254,-7.4
9.256,-5.2
9.258000000000001,-2.2
9.26,-6.8
9.262,1.0
9.264,-2.4
9.266,-0.6
9.268,-0.8
9.27,-16.0
9.272,-16.2
9.274000000000001,-10.8
9.276,-9.4
9.278,-16.6
9.28,-11.8
9.282,-8.0
9.284,-10.0
9.286,-2.2
9.288,0.0
9.290000000000001,0.2
9.292,2.0
9.294,-2.4
9.296,-10.6
9.298,-7.6
9.3,-2.6
9.302,-3.6
9.304,-1.2
9.306000000000001,-2.6
9.308,-6.8
9.31,-8.4
9.312,-9.4
9.314,-6.6
9.316,-9.0
9.318,-3.8
9.32,-7.4
9.322000000000001,-3.6
9.324,-0.6
9.326,-7.8
9.328,-10.4
9.33,-12.8
9.332,-13.6
9.334,-13.4
9.336,-13.2
9.338000000000001,-8.6
9.34,-7.0
9.342,-2.4
9.344,-1.2
9.346,-4.4
9.348,2.0
9.35,-2.0
9.352,-3.8
9.354000000000001,-3.4
9.356,-5.8
9.358,-6.0
9.36,-9.6
9.362,-16.8
9.364,-16.8
9.366,-14.0
9.368,-11.4
9.370000000000001,-10.6
9.372,-6.4
9.374,-7.6
9.376,-6.8
9.378,-4.0
9.38,-6.6
9.382,-5.6
9.384,-3.2
9.386000000000001,-4.8
9.388,-6.8
9.39,-0.6
9.392,-0.2
9.394,-5.4
9.396,-4.4
9.398,-8.8
9.4,-11.4
9.402000000000001,-6.0
9.404,-6.2
9.406,-12.0
9.408,-10.8
9.41,-7.4
9.412,-8.6
9.414,-1.8
9.416,4.0
9.418000000000001,5.0
9.42,2.6
9.422,3.6
9.424,-0.8
9.426,-4.8
9.428,-9.8
9.43,-6.8
9.432,-5.4
9.434000000000001,-6.4
9.436,-4.2
9.438,-3.0
9.44,0.8
9.442,2.4
9.444,-2.0
9.446,-0.4
9.448,3.4
9.450000000000001,-1.8
9.452,-7.6
9.454,-12.0
9.456,-1.4
9.458,2.8
9.46,-2.8
9.462,-4.8
9.464,-8.8
9.466000000000001,-12.0
9.468,-15.4
9.47,-9.2
9.472,-9.2
9.474,-6.8
9.476,-5.8
9.478,-7.0
9.48,-11.2
9.482,-10.2
9.484,-12.0
9.486,-6.4
9.488,-8.0
9.49,-1.8
9.492,-3.2
9.494,-5.4
9.496,-9.2
9.498,-11.0
9.5,-2.8
9.502,-4.0
9.504,-4.2
9.506,-6.8
9.508000000000001,-8.8
9.51,-8.8
9.512,-1.2
9.514,-3.2
9.516,-5.0
9.518,-8.8
9.52,-5.0
9.522,-6.8
9.524000000000001,-17.2
9.526,-15.4
9.528,-12.2
9.53,-5.6
9.532,2.8
9.534,5.6
9.536,8.8
9.538,18.4
9.540000000000001,24.0
9.542,32.6
9.544,33.2
9.546,33.4
9.548,30.2
9.55,18.2
9.552,12.4
9.554,9.6
9.556000000000001,2.0
9.558,-0.4
9.56,-6.4
9.562,-10.6
9.564,-11.2
9.566,-17.6
9.568,-14.4
9.57,-12.4
9.572000000000001,-16.2
9.574,-14.0
9.576,-10.4
9.578,-10.6
9.58,-12.6
9.582,-17.4
9.584,-7.2
9.586,-4.4
9.588000000000001,-4.0
9.59,-6.0
9.592,-10.4
9.594,-12.0
9.596,-9.8
9.598,-10.4
9.6,-13.4
9.602,-9.2
9.604000000000001,-7.8
9.606,-8.4
9.608,-4.8
9.61,-9.6
9.612,-8.0
9.614,-5.0
9.616,-11.2
9.618,-11.8
9.620000000000001,-11.0
9.622,-15.2
9.624,-13.4
9.626,-2.0
9.628,-3.0
9.63,-7.0
9.632,-2.8
9.634,-3.2
9.636000000000001,-9.2
9.638,-10.6
9.64,-7.6
9.642,-7.6
9.644,-12.8
9.646,-6.4
9.648,-3.6
9.65,-3.6
9.652000000000001,-5.0
9.654,-3.6
9.656,-4.2
9.658,-4.2
9.66,-8.8
9.662,-9.0
9.664,-9.2
9.666,-6.8
9.668000000000001,-1.8
9.67,-3.6
9.672,-5.6
9.674,-7.0
9.676,-8.8
9.678,-6.4
9.68,-3.0
9.682,2.2
9.684000000000001,-1.8
9.686,-4.6
9.688,-3.2
9.69,-5.6
9.692,-4.4
9.694,-3.0
9.696,-5.0
9.698,-0.8
9.700000000000001,-1.8
9.702,0.0
9.704,-0.2
9.706,1.6
9.708,3.0
9.71,4.8
9.712,0.2
9.714,-3.8
9.716000000000001,3.0
9.718,4.2
9.72,2.0
9.722,0.0
9.724,0.8
9.726,0.6
9.728,-4.0
9.73,-2.6
9.732,0.0
9.734,2.4
9.736,7.2
9.738,6.8
9.74,15.6
9.742,17.8
9.744,17.6
9.746,15.2
9.748,11.0
9.75,7.4
9.752,4.4
9.754,-0.2
9.756,6.8
9.758000000000001,14.8
9.76,13.8
9.762,10.4
9.764,11.8
9.766,12.4
9.768,9.6
9.77,13.8
9.772,17.8
9.774000000000001,16.4
9.776,13.6
9.778,14.6
9.78,11.6
9.782,10.2
9.784,8.8
9.786,2.4
9.788,3.2
9.790000000000001,9.6
9.792,8.4
9.794,4.4
9.796,6.2
9.798,6.2
9.8,6.2
9.802,0.6
9.804,0.6
9.806000000000001,0.4
9.808,-3.8
9.81,-1.4
9.812,0.8
9.814,-1.6
9.816,-3.4
9.818,-8.6
9.82,-1.0
9.822000000000001,2.4
9.824,-2.6
9.826,2.8
9.828,-1.2
9.83,-1.2
9.832,-4.6
9.834,-9.8
9.836,-10.0
9.838000000000001,-4.6
9.84,-4.2
9.842,-3.2
9.844,-2.8
9.846,-3.4
9.848,0.6
9.85,0.6
9.852,-4.2
9.854000000000001,-7.8
9.856,-10.6
9.858,-11.8
9.86,-13.6
9.862,-16.0
9.864,-19.6
9.866,-15.6
9.868,-7.4
9.870000000000001,-1.0
9.872,-0.6
9.874,2.2
9.876,-1.6
9.878,-7.6
9.88,-7.8
9.882,-7.2
9.884,-10.8
9.886000000000001,-6.8
9.888,-4.8
9.89,0.0
9.892,-3.6
9.894,-10.4
9.896,-15.2
9.898,-8.8
9.9,-4.6
9.902000000000001,-4.6
9.904,-4.6
9.906,1.8
9.908,-1.0
9.91,-3.6
9.912,-5.4
9.914,-2.4
9.916,0.2
9.918000000000001,-5.6
9.92,-6.2
9.922,1.2
9.924,0.6
9.926,-5.6
9.928,-7.8
9.93,-11.4
9.932,-11.8
9.934000000000001,-9.2
9.936,-11.6
9.938,-7.4
9.94,-6.8
9.942,-6.4
9.944,-6.8
9.946,-5.0
9.948,-2.8
9.950000000000001,-6.2
9.952,-9.4
9.954,-6.6
9.956,-8.6
9.958,-7.8
9.96,-7.8
9.962,-5.8
9.964,-5.6
9.966000000000001,-7.4
9.968,-8.4
9.97,-6.4
9.972,-6.8
9.974,-5.6
9.976,-6.2
9.978,-7.6
9.98,-11.0
9.982000000000001,-9.8
9.984,-4.6
9.986,-8.8
9.988,-5.6
9.99,-4.2
9.992,-5.4
9.994,-7.0
9.996,-1.8
9.998,-3.0
10.0,-1.6
10.002,0.2
10.004,-4.0
10.006,-4.2
10.008000000000001,-8.2
10.01,-11.4
10.012,-11.0
10.014,-11.4
10.016,-12.6
10.018,-8.4
10.02,-8.8
10.022,-6.4
10.024000000000001,-4.8
10.026,-8.6
10.028,-14.2
10.03,-16.0
10.032,-7.2
10.034,-4.2
10.036,-4.0
10.038,-3.4
10.040000000000001,-4.0
10.042,-5.2
10.044,-11.2
10.046,-13.8
10.048,-13.4
10.05,-8.0
10.052,-8.2
10.054,-5.2
10.056000000000001,-4.6
10.058,-5.6
10.06,-5.6
10.062,-8.6
10.064,0.4
10.066,-0.4
10.068,0.2
10.07,0.4
10.072000000000001,-1.0
10.074,-9.0
10.076,-7.8
10.078,-9.0
10.08,-13.6
10.082,-12.6
10.084,-9.0
10.086,-5.4
10.088000000000001,3.2
10.09,3.8
10.092,-2.0
10.094,-4.4
10.096,-3.0
10.098,-1.0
10.1,-5.8
10.102,-5.6
10.104000000000001,-4.8
10.106,-5.2
10.108,-6.0
10.11,-5.0
10.112,-2.4
10.114,-4.8
10.116,-5.8
10.118,-5.6
10.120000000000001,-6.8
10.122,-6.0
10.124,-4.6
10.126,-7.2
10.128,-6.0
10.13,-6.8
10.132,-4.0
10.134,-9.6
10.136000000000001,-14.0
10.138,-9.6
10.14,-2.6
10.142,-6.4
10.144,-10.4
10.146,-8.4
10.148,-6.6
10.15,-7.4
10.152000000000001,-11.0
10.154,-11.6
10.156,-12.8
10.158,-15.2
10.16,-17.4
10.162,-11.2
10.164,-7.8
10.166,-5.8
10.168000000000001,-6.2
10.17,-6.4
10.172,-9.4
10.174,-5.2
10.176,-5.2
10.178,-4.8
10.18,-6.2
10.182,-9.0
10.184000000000001,-11.6
10.186,-11.8
10.188,-5.8
10.19,-2.2
10.192,-1.4
10.194,-2.4
10.196,3.8
10.198,11.8
10.200000000000001,15.4
10.202,21.6
10.204,22.8
10.206,19.8
10.208,16.6
10.21,15.0
10.212,12.2
10.214,9.2
10.216000000000001,6.4
10.218,4.0
10.22,-4.8
10.222,-9.2
10.224,-14.6
10.226,-9.2
10.228,-8.6
10.23,-9.6
10.232000000000001,-10.6
10.234,-10.4
10.236,-5.4
10.238,-2.6
10.24,-4.0
10.242,-5.4
10.244,-7.6
10.246,-8.2
10.248,-10.6
10.25,-16.2
10.252,-18.6
10.254,-16.2
10.256,-9.8
10.258000000000001,-5.2
10.26,-2.0
10.262,-2.6
10.264,-6.6
10.266,-6.4
10.268,-3.8
10.27,-7.4
10.272,-4.8
10.274000000000001,-6.6
10.276,-10.0
10.278,-9.8
10.28,-13.8
10.282,-10.8
10.284,-6.4
10.286,-13.2
10.288,-8.4
10.290000000000001,-5.2
10.292,-7.2
10.294,-8.4
10.296,-9.8
10.298,-8.4
10.3,-9.0
10.302,-9.2
10.304,-3.8
10.306000000000001,2.2
10.308,-1.4
10.31,-4.2
10.312,-5.2
10.314,-6.0
10.316,-6.0
10.318,-10.2
10.32,-11.8
10.322000000000001,-10.0
10.324,-8.0
10.326,-6.8
10.328,-7.4
10.33,-8.0
10.332,-5.2
10.334,-2.8
10.336,-1.4
10.338000000000001,1.8
10.34,-0.4
10.342,-1.6
10.344,4.2
10.346,0.2
10.348,-3.2
10.35,-7.6
10.352,-2.6
10.354000000000001,-6.4
10.356,-9.4
10.358,-6.0
10.36,1.2
10.362,-0.4
10.364,-3.0
10.366,2.0
10.368,1.2
10.370000000000001,1.0
10.372,3.2
10.374,1.6
10.376,1.6
10.378,1.0
10.38,3.0
10.382,4.0
10.384,0.8
10.386000000000001,0.6
10.388,0.2
10.39,1.4
10.392,1.2
10.394,9.2
10.396,10.6
10.398,6.8
10.4,2.8
10.402000000000001,2.4
10.404,6.8
10.406,6.0
10.408,9.8
10.41,11.0
10.412,10.6
10.414,8.8
10.416,8.0
10.418000000000001,12.2
10.42,14.2
10.422,16.8
10.424,13.6
10.426,14.4
10.428,11.6
10.43,11.4
10.432,12.0
10.434000000000001,8.4
10.436,8.0
10.438,9.2
10.44,13.8
10.442,11.2
10.444,10.8
10.446,12.0
10.448,5.8
10.450000000000001,7.0
10.452,4.0
10.454,0.6
10.456,-0.8
10.458,-3.2
10.46,0.2
10.462,-4.0
10.464,-1.8
10.466000000000001,-3.8
10.468,0.2
10.47,-4.2
10.472,-1.6
10.474,3.0
10.476,0.6
10.478,3.8
10.48,2.0
10.482000000000001,-0.8
10.484,-3.8
10.486,-8.0
10.488,-15.4
10.49,-14.8
10.492,-5.2
10.494,-3.6
10.496,-2.2
10.498,-2.0
10.5,-4.0
10.502,-6.8
10.504,-5.6
10.506,-9.8
10.508000000000001,-7.8
10.51,-1.4
10.512,0.4
10.514,-2.6
10.516,-4.6
10.518,-4.6
10.52,-2.6
10.522,-4.4
10.524000000000001,-6.0
10.526,-5.8
10.528,-1.0
10.53,0.6
10.532,-1.6
10.534,-1.6
10.536,-3.8
10.538,-6.6
10.540000000000001,-8.0
10.542,-11.2
10.544,-11.0
10.546,-7.4
10.548,-3.2
10.55,-7.4
10.552,-4.8
10.554,-3.2
10.556000000000001,-7.2
10.558,-8.8
10.56,-9.6
10.562,-7.6
10.564,-2.0
10.566,-1.6
10.568,-1.6
10.57,-0.6
10.572000000000001,-4.2
10.574,-6.4
10.576,-10.4
10.578,-7.0
10.58,-5.4
10.582,-7.8
10.584,-6.8
10.586,-7.4
10.588000000000001,-8.4
10.59,-9.4
10.592,-11.0
10.594,-8.8
10.596,-8.8
10.598,-4.4
10.6,-0.6
10.602,-0.4
10.604000000000001,-1.4
10.606,-1.6
10.608,-7.0
10.61,-6.0
10.612,-6.0
10.614,-4.6
10.616,-0.8
10.618,-6.0
10.620000000000001,-4.2
10.622,-4.6
10.624,-9.4
10.626,-10.2
10.628,-3.4
10.63,-1.4
10.632,-7.6
10.634,-11.4
10.636000000000001,-7.2
10.638,-2.8
10.64,-2.8
10.642,-1.6
10.644,2.6
10.646,-4.6
10.648,-11.6
10.65,-19.8
10.652000000000001,-11.0
10.654,-2.6
10.656,5.6
10.658,-2.2
10.66,-6.6
10.662,-9.6
10.664,-8.0
10.666,-7.2
10.668000000000001,-5.8
10.67,-3.2
10.672,-7.2
10.674,0.0
10.676,0.2
10.678,-4.6
10.68,-1.2
10.682,3.0
10.684000000000001,-4.6
10.686,-3.4
10.688,-0.8
10.69,-3.4
10.692,-6.4
10.694,-5.6
10.696,-5.6
10.698,-6.8
10.700000000000001,1.2
10.702,5.0
10.704,0.2
10.706,0.6
10.708,2.4
10.71,0.2
10.712,-1.6
10.714,0.6
10.716000000000001,7.0
10.718,4.2
10.72,-0.8
10.722,-0.6
10.724,-3.8
10.726,-5.4
10.728,-10.2
10.73,-9.2
10.732000000000001,-1.8
10.734,3.2
10.736,1.2
10.738,-2.6
10.74,-5.4
10.742,-10.0
10.744,-8.4
10.746,-4.2
10.748000000000001,-2.2
10.75,-0.2
10.752,-3.6
10.754,-8.4
10.756,-8.6
10.758000000000001,-6.4
10.76,-7.4
10.762,-10.2
10.764,-10.0
10.766,-4.6
10.768,-6.6
10.77,-6.6
10.772,-3.8
10.774000000000001,-6.0
10.776,-10.0
10.778,-7.8
10.78,-12.2
10.782,-13.8
10.784,-6.4
10.786,-6.8
10.788,-8.8
10.790000000000001,-7.6
10.792,-5.6
10.794,-4.8
10.796,-7.6
10.798,-9.8
10.8,-8.8
10.802,-10.0
10.804,-12.2
10.806000000000001,-9.8
10.808,-6.2
10.81,-9.8
10.812,1.2
10.814,-0.6
10.816,1.2
10.818,1.8
10.82,11.0
10.822000000000001,22.2
10.824,22.0
10.826,27.8
10.828,20.0
10.83,21.2
10.832,25.6
10.834,23.4
10.836,17.0
10.838000000000001,11.4
10.84,6.2
10.842,2.0
10.844,-6.2
10.846,-12.8
10.848,-7.6
10.85,-12.6
10.852,-11.8
10.854000000000001,-16.2
10.856,-19.8
10.858,-17.4
10.86,-13.2
10.862,-10.4
10.864,-7.0
10.866,-3.4
10.868,-0.4
10.870000000000001,-2.2
10.872,-3.8
10.874,-10.2
10.876,-12.8
10.878,-10.8
10.88,-12.2
10.882,-10.8
10.884,-6.0
10.886000000000001,-3.0
10.888,-5.8
10.89,-4.8
10.892,-5.8
10.894,-7.2
10.896,-7.4
10.898,-4.6
10.9,-10.2
10.902000000000001,-10.2
10.904,-6.0
10.906,-1.2
10.908,-6.8
10.91,-9.6
10.912,-9.4
10.914,-9.6
10.916,-8.8
10.918000000000001,-6.2
10.92,-6.2
10.922,-5.4
10.924,-7.2
10.926,-7.6
10.928,-7.0
10.93,-5.8
10.932,-1.8
10.934000000000001,-3.2
10.936,-5.4
10.938,-8.2
10.94,-10.4
10.942,-12.0
10.944,-5.0
10.946,-1.8
10.948,-2.6
10.950000000000001,-2.8
10.952,-4.8
10.954,-6.6
10.956,-7.4
10.958,-6.8
10.96,-1.2
10.962,2.8
10.964,4.8
10.966000000000001,-3.4
10.968,-3.4
10.97,-1.6
10.972,-1.4
10.974,-1.8
10.976,-5.2
10.978,-0.2
10.98,-0.4
10.982000000000001,0.6
10.984,2.0
10.986,6.0
10.988,5.6
10.99,0.0
10.992,-6.6
10.994,-4.6
10.996,1.6
10.998000000000001,0.2
11.0,2.4
11.002,0.2
11.004,-5.4
11.006,9.8
11.008000000000001,10.4
11.01,9.8
11.012,8.2
11.014,4.2
11.016,3.2
11.018,3.6
11.02,1.6
11.022,3.8
11.024000000000001,10.8
11.026,18.0
11.028,20.6
11.03,20.0
11.032,3.8
11.034,6.4
11.036,11.6
11.038,15.6
11.040000000000001,13.4
11.042,7.8
11.044,13.8
11.046,11.8
11.048,20.2
11.05,17.4
11.052,17.8
11.054,20.0
11.056000000000001,26.2
11.058,19.4
11.06,20.0
11.062,13.0
11.064,14.0
11.066,15.6
11.068,16.0
11.07,13.8
11.072000000000001,13.0
11.074,4.0
11.076,5.4
11.078,7.0
11.08,7.0
11.082,9.2
11.084,6.8
11.086,4.2
11.088000000000001,0.4
11.09,-2.4
11.092,1.4
11.094,4.4
11.096,-0.8
11.098,-3.6
11.1,-5.6
11.102,-4.4
11.104000000000001,-1.2
11.106,-4.4
11.108,-2.8
11.11,-6.6
11.112,-9.0
11.114,-6.0
11.116,1.6
11.118,1.4
11.120000000000001,-2.6
11.122,-1.6
11.124,0.6
11.126,-3.4
11.128,-11.8
11.13,-9.0
11.132,-7.2
11.134,-8.0
11.136000000000001,-12.8
11.138,-10.8
11.14,-7.4
11.142,-1.4
11.144,-3.6
11.146,3.6
11.148,-1.0
11.15,0.4
11.152000000000001,-3.6
11.154,-2.0
11.156,1.2
11.158,-4.6
11.16,-10.8
11.162,-6.6
11.164,-3.0
11.166,-7.4
11.168000000000001,-6.8
11.17,-3.8
11.172,-5.2
11.174,-6.6
11.176,-7.4
11.178,1.8
11.18,-3.8
11.182,-7.6
11.184000000000001,-2.6
11.186,-7.8
11.188,5.2
11.19,-1.0
11.192,-9.2
11.194,-7.4
11.196,-5.2
11.198,-7.6
11.200000000000001,-5.2
11.202,-6.8
11.204,-5.8
11.206,-6.2
11.208,-5.4
11.21,-5.2
11.212,-1.4
11.214,-0.8
11.216000000000001,2.8
11.218,3.2
11.22,-0.8
11.222,-0.8
11.224,-3.0
11.226,-9.8
11.228,-12.4
11.23,-8.6
11.232000000000001,-5.4
11.234,-7.2
11.236,-4.0
11.238,-7.6
11.24,-8.4
11.242,-7.6
11.244,-6.2
11.246,-6.2
11.248000000000001,-2.8
11.25,-3.2
11.252,-6.8
11.254,-3.8
11.256,-3.2
11.258000000000001,-2.8
11.26,-8.6
11.262,-5.8
11.264,-4.2
11.266,-1.8
11.268,-6.4
11.27,-7.0
11.272,-3.4
11.274000000000001,-1.4
11.276,-3.8
11.278,-5.0
11.28,-9.4
11.282,-10.6
11.284,-8.4
11.286,-3.2
11.288,-0.4
11.290000000000001,-2.8
11.292,-5.0
11.294,-2.6
11.296,-5.8
11.298,-5.6
11.3,2.4
11.302,3.2
11.304,-1.6
11.306000000000001,1.4
11.308,-0.4
11.31,-2.0
11.312,0.8
11.314,3.8
11.316,1.6
11.318,-1.2
11.32,-1.2
11.322000000000001,1.6
11.324,0.8
11.326,-2.2
11.328,-3.8
11.33,-1.6
11.332,4.4
11.334,5.6
11.336,-1.0
11.338000000000001,-1.8
11.34,1.4
11.342,0.4
11.344,-3.2
11.346,-3.4
11.348,-0.8
11.35,-1.6
11.352,1.8
11.354000000000001,-0.2
11.356,-0.8
11.358,-6.0
11.36,-6.4
11.362,-4.8
11.364,-4.2
11.366,-3.8
11.368,-5.4
11.370000000000001,-2.8
11.372,-2.4
11.374,-4.4
11.376,-5.0
11.378,-5.8
11.38,-9.6
11.382,-10.2
11.384,-9.6
11.386000000000001,-12.4
11.388,-12.2
11.39,-13.6
11.392,-11.0
11.394,-5.0
11.396,-4.4
11.398,-8.8
11.4,-4.4
11.402000000000001,-0.4
11.404,-0.8
11.406,-3.6
11.408,-3.0
11.41,-4.4
11.412,-10.4
11.414,-11.4
11.416,-13.0
11.418000000000001,-16.4
11.42,-15.0
11.422,-5.4
11.424,1.0
11.426,4.4
11.428,14.2
11.43,15.8
11.432,17.0
11.434000000000001,18.8
11.436,24.2
11.438,29.4
11.44,25.2
11.442,23.6
11.444,23.2
11.446,24.2
11.448,19.8
11.450000000000001,16.2
11.452,14.2
11.454,10.0
11.456,0.6
11.458,-6.0
11.46,-9.8
11.462,-15.0
11.464,-24.4
11.466000000000001,-16.0
11.468,-11.6
11.47,-11.6
11.472,-11.2
11.474,-10.2
11.476,-5.8
11.478,-4.6
11.48,-7.4
11.482000000000001,-8.2
11.484,-6.6
11.486,-6.8
11.488,-4.6
11.49,-5.6
11.492,-8.2
11.494,-9.4
11.496,-7.8
11.498000000000001,-9.2
11.5,-7.4
11.502,-8.0
11.504,-2.6
11.506,0.2
11.508000000000001,-0.4
11.51,-3.2
11.512,-13.6
11.514000000000001,-9.8
11.516,-9.8
11.518,-11.4
11.52,-4.2
11.522,-4.8
11.524000000000001,-8.6
11.526,-5.4
11.528,1.6
11.53,-2.8
11.532,-6.4
11.534,-4.2
11.536,-2.6
11.538,-4.4
11.540000000000001,-5.2
11.542,-4.6
11.544,-5.6
11.546,-6.0
11.548,-3.0
11.55,-2.2
11.552,-2.4
11.554,-5.2
11.556000000000001,-6.0
11.558,-3.2
11.56,1.6
11.562,-3.8
11.564,-6.4
11.566,-3.6
11.568,-4.4
11.57,-6.6
11.572000000000001,-7.6
11.574,-5.2
11.576,-2.2
11.578,-1.2
11.58,2.4
11.582,-2.6
11.584,-3.2
11.586,3.6
11.588000000000001,7.8
11.59,3.2
11.592,4.8
11.594,4.6
11.596,-0.4
11.598,0.8
11.6,-1.8
11.602,-2.0
11.604000000000001,-4.8
11.606,-2.4
11.608,3.6
11.61,4.2
11.612,11.4
11.614,8.6
11.616,9.0
11.618,5.4
11.620000000000001,5.6
11.622,7.6
11.624,6.4
11.626,9.2
11.628,8.0
11.63,5.8
11.632,6.0
11.634,7.2
11.636000000000001,8.8
11.638,14.6
11.64,18.0
11.642,15.0
11.644,14.8
11.646,13.0
11.648,11.8
11.65,11.2
11.652000000000001,11.4
11.654,15.6
11.656,17.2
11.658,14.6
11.66,20.0
11.662,17.6
11.664,15.6
11.666,13.6
11.668000000000001,10.8
11.67,14.6
11.672,12.6
11.674,10.4
11.676,12.6
11.678,12.0
11.68,9.4
11.682,10.8
11.684000000000001,13.4
11.686,11.0
11.688,7.8
11.69,8.4
11.692,6.2
11.694,2.2
11.696,-0.6
11.698,-0.8
11.700000000000001,4.4
11.702,1.8
11.704,-3.4
11.706,-0.2
11.708,3.4
11.71,0.0
11.712,7.8
11.714,7.4
11.716000000000001,3.6
11.718,-8.4
11.72,-7.2
11.722,-10.0
11.724,-9.4
11.726,-5.2
11.728,-3.6
11.73,-2.4
11.732000000000001,-1.6
11.734,-4.4
11.736,-6.0
11.738,-5.8
11.74,-4.2
11.742,-5.0
11.744,-4.2
11.746,-5.4
11.748000000000001,-3.4
11.75,-5.0
11.752,-3.8
11.754,-5.6
11.756,-1.4
11.758000000000001,-3.2
11.76,-5.0
11.762,-6.4
11.764000000000001,-3.2
11.766,-5.0
11.768,-3.6
11.77,-6.6
11.772,-7.8
11.774000000000001,-1.4
11.776,0.4
11.778,2.8
11.78,-0.6
11.782,-2.0
11.784,-0.8
11.786,-0.4
11.788,1.8
11.790000000000001,-3.6
11.792,-2.0
11.794,-6.8
11.796,-6.8
11.798,-6.2
11.8,-9.0
11.802,-7.4
11.804,-3.4
11.806000000000001,2.4
11.808,2.2
11.81,1.2
11.812,-3.8
11.814,-5.6
11.816,-3.6
11.818,-3.4
11.82,-4.8
11.822000000000001,-4.8
11.824,-3.6
11.826,-3.4
11.828,-2.6
11.83,-0.8
11.832,0.2
11.834,-7.6
11.836,-12.2
11.838000000000001,-9.2
11.84,-8.6
11.842,-8.4
11.844,-4.6
11.846,0.2
11.848,0.0
11.85,-3.8
11.852,-2.4
11.854000000000001,0.0
11.856,0.4
11.858,3.2
11.86,-1.4
11.862,-2.4
11.864,-2.0
11.866,-1.4
11.868,-2.6
11.870000000000001,-2.2
11.872,4.2
11.874,2.6
11.876,-0.8
11.878,-0.8
11.88,-5.2
11.882,-11.8
11.884,-15.4
11.886000000000001,-16.4
11.888,-13.6
11.89,-6.0
11.892,-3.4
11.894,-0.2
11.896,-0.4
11.898,5.2
11.9,4.4
11.902000000000001,5.0
11.904,5.0
11.906,6.4
11.908,3.8
11.91,4.8
11.912,5.8
11.914,4.8
11.916,2.2
11.918000000000001,0.2
11.92,-5.0
11.922,-5.2
11.924,-3.8
11.926,-2.2
11.928,-7.0
11.93,-4.0
11.932,2.4
11.934000000000001,0.4
11.936,0.8
11.938,2.2
11.94,2.0
11.942,-0.8
11.944,1.2
11.946,1.6
11.948,2.4
11.950000000000001,0.4
11.952,-5.0
11.954,-4.6
11.956,-7.4
11.958,-6.4
11.96,-5.2
11.962,-4.0
11.964,-2.8
11.966000000000001,-0.2
11.968,-4.0
11.97,-11.0
11.972,-5.8
11.974,-0.4
11.976,-3.8
11.978,-2.4
11.98,-3.6
11.982000000000001,1.6
11.984,1.4
11.986,-1.4
11.988,-6.6
11.99,-9.0
11.992,-7.6
11.994,-9.0
11.996,-7.2
11.998000000000001,-0.2
12.0,-1.4
12.002,1.2
12.004,1.2
12.006,-7.0
12.008000000000001,-13.0
12.01,-16.2
12.012,-15.0
12.014000000000001,-8.4
12.016,-5.6
12.018,-0.2
12.02,6.4
12.022,12.8
12.024000000000001,19.8
12.026,24.8
12.028,26.4
12.030000000000001,22.0
12.032,16.6
12.034,16.0
12.036,15.6
12.038,18.6
12.040000000000001,20.8
12.042,20.0
12.044,14.8
12.046,7.0
12.048,0.2
12.05,-2.6
12.052,-1.8
12.054,-7.8
12.056000000000001,-5.2
12.058,-8.8
12.06,-13.8
12.062,-13.4
12.064,-6.8
12.066,-3.2
12.068,-0.4
12.07,-1.8
12.072000000000001,-1.6
12.074,-1.4
12.076,0.2
12.078,0.2
12.08,-3.2
12.082,-4.2
12.084,-3.6
12.086,-3.8
12.088000000000001,-3.8
12.09,-4.0
12.092,-2.4
12.094,-2.6
12.096,1.4
12.098,-0.4
12.1,-1.4
12.102,-7.4
12.104000000000001,-12.2
12.106,-10.6
12.108,-11.2
12.11,-7.8
12.112,-2.8
12.114,2.6
12.116,4.8
12.118,-0.4
12.120000000000001,-0.2
12.122,0.8
12.124,4.0
12.126,0.6
12.128,-3.4
12.13,-4.6
12.132,-10.4
12.134,-5.8
12.136000000000001,-3.2
12.138,-3.6
12.14,-8.0
12.142,-7.0
12.144,-1.0
12.146,2.2
12.148,-0.4
12.15,-3.4
12.152000000000001,-2.8
12.154,-0.4
12.156,-3.6
12.158,-6.0
12.16,-2.8
12.162,2.2
12.164,1.8
12.166,-2.2
12.168000000000001,-3.2
12.17,-6.2
12.172,-3.0
12.174,0.2
12.176,2.8
12.178,3.6
12.18,2.8
12.182,-2.2
12.184000000000001,-3.4
12.186,-4.0
12.188,-6.0
12.19,0.2
12.192,2.8
12.194,3.0
12.196,5.6
12.198,10.2
12.200000000000001,10.6
12.202,10.8
12.204,10.4
12.206,8.8
12.208,3.2
12.21,2.6
12.212,-4.0
12.214,-0.6
12.216000000000001,5.0
12.218,9.2
12.22,9.2
12.222,5.8
12.224,5.8
12.226,8.4
12.228,8.0
12.23,11.8
12.232000000000001,11.8
12.234,11.4
12.236,10.2
12.238,14.4
12.24,10.6
12.242,14.8
12.244,13.2
12.246,12.2
12.248000000000001,14.8
12.25,16.8
12.252,15.4
12.254,16.0
12.256,13.0
12.258000000000001,13.2
12.26,11.4
12.262,18.6
12.264000000000001,16.6
12.266,12.4
12.268,14.2
12.27,13.2
12.272,11.2
12.274000000000001,9.8
12.276,10.4
12.278,8.4
12.280000000000001,-1.2
12.282,1.6
12.284,2.6
12.286,2.8
12.288,-0.8
12.290000000000001,-3.0
12.292,0.0
12.294,2.4
12.296,-1.6
12.298,-1.4
12.3,-2.2
12.302,1.6
12.304,2.2
12.306000000000001,6.2
12.308,-0.2
12.31,-2.4
12.312,-5.6
12.314,-4.4
12.316,-3.4
12.318,-6.2
12.32,-7.8
12.322000000000001,-4.6
12.324,3.4
12.326,-0.2
12.328,-1.4
12.33,-4.8
12.332,-6.8
12.334,-8.4
12.336,-3.2
12.338000000000001,-6.2
12.34,-3.8
12.342,-1.4
12.344,3.4
12.346,-1.8
12.348,-5.0
12.35,-3.4
12.352,-4.6
12.354000000000001,-7.4
12.356,-8.2
12.358,-2.0
12.36,5.6
12.362,3.6
12.364,1.4
12.366,-2.6
12.368,-6.0
12.370000000000001,-7.4
12.372,-7.6
12.374,-0.6
12.376,-1.6
12.378,-5.2
12.38,-6.6
12.382,-6.4
12.384,-4.8
12.386000000000001,-4.6
12.388,-6.0
12.39,-5.6
12.392,-3.4
12.394,-1.8
12.396,-2.4
12.398,-1.8
12.4,-2.8
12.402000000000001,-8.0
12.404,-7.6
12.406,-8.8
12.408,-4.2
12.41,-1.8
12.412,-2.8
12.414,-2.8
12.416,-5.2
12.418000000000001,-3.2
12.42,2.6
12.422,1.6
12.424,-1.0
12.426,-0.4
12.428,-0.2
12.43,-3.6
12.432,-5.8
12.434000000000001,-5.8
12.436,-3.8
12.438,-0.6
12.44,-1.8
12.442,-2.4
12.444,-2.6
12.446,-2.2
12.448,1.8
12.450000000000001,0.0
12.452,-5.4
12.454,-9.4
12.456,-10.4
12.458,-10.8
12.46,-8.6
12.462,-3.0
12.464,-3.8
12.466000000000001,-5.0
12.468,-0.4
12.47,5.8
12.472,0.0
12.474,-2.8
12.476,-6.8
12.478,-8.2
12.48,-4.6
12.482000000000001,1.4
12.484,2.0
12.486,3.8
12.488,2.6
12.49,2.4
12.492,-2.4
12.494,-2.0
12.496,1.8
12.498000000000001,2.0
12.5,2.0
12.502,6.6
12.504,6.0
12.506,4.6
12.508000000000001,-1.4
12.51,-6.2
12.512,-7.6
12.514000000000001,-9.0
12.516,-10.6
12.518,-11.8
12.52,-2.0
12.522,2.4
12.524000000000001,1.0
12.526,-3.6
12.528,-5.2
12.530000000000001,-6.0
12.532,-9.0
12.534,-10.6
12.536,-4.2
12.538,-0.4
12.540000000000001,-5.2
12.542,-6.6
12.544,-9.8
12.546,-9.4
12.548,-8.0
12.55,-0.2
12.552,-1.6
12.554,-2.4
12.556000000000001,-3.0
12.558,-6.0
12.56,-11.8
12.562,-11.4
12.564,-10.0
12.566,-14.8
12.568,-13.4
12.57,-10.0
12.572000000000001,-6.0
12.574,-6.8
12.576,-6.8
12.578,-9.0
12.58,-10.6
12.582,-8.8
12.584,-8.4
12.586,-9.4
12.588000000000001,-9.8
12.59,-8.8
12.592,-8.8
12.594,-6.4
12.596,-0.6
12.598,0.6
12.6,5.4
12.602,11.0
12.604000000000001,17.4
12.606,23.8
12.608,22.2
12.61,23.0
12.612,23.0
12.614,19.4
12.616,10.2
12.618,7.8
12.620000000000001,8.6
12.622,4.8
12.624,-1.2
12.626,-3.6
12.628,-6.8
12.63,-8.2
12.632,-7.6
12.634,-12.2
12.636000000000001,-18.2
12.638,-12.0
12.64,-13.2
12.642,-12.4
12.644,-7.6
12.646,-4.0
12.648,-5.4
12.65,-4.8
12.652000000000001,-5.6
12.654,-7.0
12.656,-6.4
12.658,-5.0
12.66,-2.8
12.662,-3.0
12.664,-8.6
12.666,-7.8
12.668000000000001,-3.6
12.67,-7.2
12.672,-5.6
12.674,-5.6
12.676,-7.2
12.678,-7.4
12.68,-7.6
12.682,-8.0
12.684000000000001,-8.4
12.686,-1.8
12.688,-7.2
12.69,-8.0
12.692,-8.0
12.694,-6.6
12.696,-7.6
12.698,-7.2
12.700000000000001,-6.8
12.702,-5.2
12.704,-6.2
12.706,-10.8
12.708,-10.4
12.71,-9.2
12.712,-6.8
12.714,-5.8
12.716000000000001,-5.6
12.718,-4.4
12.72,-4.8
12.722,-4.2
12.724,-3.0
12.726,0.2
12.728,-7.4
12.73,-13.6
12.732000000000001,-13.2
12.734,-6.8
12.736,-6.0
12.738,-7.8
12.74,-7.8
12.742,-7.6
12.744,-6.8
12.746,-3.6
12.748000000000001,-2.0
12.75,-0.8
12.752,-5.8
12.754,-9.4
12.756,-0.6
12.758000000000001,6.4
12.76,3.6
12.762,3.0
12.764000000000001,0.4
12.766,-2.4
12.768,-5.0
12.77,-1.6
12.772,-1.6
12.774000000000001,-0.2
12.776,-0.2
12.778,-7.2
12.780000000000001,-4.2
12.782,0.8
12.784,3.4
12.786,5.6
12.788,4.4
12.790000000000001,1.0
12.792,5.8
12.794,8.0
12.796000000000001,0.2
12.798,-4.4
12.8,-1.2
12.802,4.2
12.804,10.0
12.806000000000001,14.6
12.808,12.8
12.81,13.6
12.812,11.6
12.814,9.0
12.816,4.4
12.818,8.0
12.82,8.2
12.822000000000001,14.6
12.824,16.2
12.826,19.2
12.828,18.0
12.83,16.4
12.832,16.6
12.834,17.6
12.836,18.6
12.838000000000001,17.2
12.84,17.0
12.842,11.6
12.844,8.0
12.846,11.4
12.848,14.2
12.85,12.4
12.852,5.4
12.854000000000001,3.6
12.856,1.2
12.858,7.2
12.86,8.4
12.862,7.4
12.864,2.6
12.866,4.4
12.868,1.4
12.870000000000001,-3.4
12.872,-7.8
12.874,-0.8
12.876,-1.0
12.878,-5.2
12.88,-0.6
12.882,-1.2
12.884,-2.2
12.886000000000001,-4.2
12.888,-6.2
12.89,-7.8
12.892,-8.8
12.894,-9.4
12.896,-3.2
12.898,-2.4
12.9,0.2
12.902000000000001,-4.2
12.904,-1.4
12.906,-1.8
12.908,-3.0
12.91,-2.0
12.912,-0.4
12.914,-1.8
12.916,-9.4
12.918000000000001,-9.4
12.92,-4.2
12.922,-1.8
12.924,-3.0
12.926,-1.4
12.928,-3.0
12.93,-2.8
12.932,-7.6
12.934000000000001,-6.8
12.936,-2.6
12.938,4.2
12.94,4.8
12.942,1.4
12.944,-1.0
12.946,-3.0
12.948,-6.8
12.950000000000001,-7.6
12.952,-4.6
12.954,-5.8
12.956,-1.6
12.958,-0.6
12.96,-1.8
12.962,-5.2
12.964,-8.6
12.966000000000001,-2.6
12.968,-7.4
12.97,-2.4
12.972,-4.8
12.974,-6.0
12.976,-6.8
12.978,-2.8
12.98,-1.2
12.982000000000001,0.6
12.984,-0.6
12.986,0.8
12.988,1.0
12.99,2.4
12.992,-1.2
12.994,-2.0
12.996,-11.0
12.998000000000001,-9.4
13.0,-3.2
13.002,-6.8
13.004,-6.6
13.006,-3.8
13.008000000000001,-0.2
13.01,1.6
13.012,2.2
13.014000000000001,2.6
13.016,0.8
13.018,-1.0
13.02,0.6
13.022,6.8
13.024000000000001,8.2
13.026,1.4
13.028,-2.0
13.030000000000001,-3.6
13.032,-1.8
13.034,0.2
13.036,-1.2
13.038,1.0
13.040000000000001,0.4
13.042,0.6
13.044,1.8
13.046000000000001,3.6
13.048,7.0
13.05,5.6
13.052,2.8
13.054,0.2
13.056000000000001,2.0
13.058,2.0
13.06,3.4
13.062,1.2
13.064,-5.8
13.066,-8.6
13.068,-7.8
13.07,0.4
13.072000000000001,6.2
13.074,6.2
13.076,6.4
13.078,4.2
13.08,-2.4
13.082,-4.4
13.084,-4.8
13.086,-5.6
13.088000000000001,-4.6
13.09,-4.8
13.092,-6.0
13.094,0.8
13.096,3.8
13.098,-4.8
13.1,-8.2
13.102,-9.6
13.104000000000001,-9.2
13.106,-5.2
13.108,-3.6
13.11,-4.2
13.112,-2.2
13.114,-3.8
13.116,-5.6
13.118,-6.0
13.120000000000001,-3.2
13.122,-5.4
13.124,-6.8
13.126,-0.6
13.128,3.4
13.13,1.2
13.132,0.8
13.134,-3.4
13.136000000000001,-6.4
13.138,-4.4
13.14,-6.2
13.142,-2.8
13.144,-1.2
13.146,-4.0
13.148,-7.4
13.15,-6.4
13.152000000000001,-3.0
13.154,0.4
13.156,4.6
13.158,9.4
13.16,18.8
13.162,27.0
13.164,27.2
13.166,22.8
13.168000000000001,24.4
13.17,26.2
13.172,21.0
13.174,15.4
13.176,13.8
13.178,10.2
13.18,6.6
13.182,5.4
13.184000000000001,0.6
13.186,-2.8
13.188,-5.0
13.19,-1.8
13.192,-0.6
13.194,-4.8
13.196,-7.8
13.198,-5.2
13.200000000000001,-5.8
13.202,-6.8
13.204,-3.0
13.206,-5.0
13.208,-6.8
13.21,-8.6
13.212,-5.0
13.214,-1.2
13.216000000000001,-1.2
13.218,-3.4
13.22,-2.0
13.222,-1.6
13.224,-1.8
13.226,2.0
13.228,-0.8
13.23,-8.4
13.232000000000001,-7.4
13.234,-5.8
13.236,-4.6
13.238,-7.6
13.24,-3.4
13.242,-2.2
13.244,-0.8
13.246,2.6
13.248000000000001,2.8
13.25,-1.2
13.252,-2.0
13.254,-4.4
13.256,-3.8
13.258000000000001,0.4
13.26,-0.4
13.262,-3.8
13.264000000000001,-8.8
13.266,-6.8
13.268,-2.0
13.27,-1.0
13.272,-2.2
13.274000000000001,-3.6
13.276,-2.8
13.278,-1.8
13.280000000000001,-0.4
13.282,-2.6
13.284,-9.0
13.286,-9.4
13.288,-1.0
13.290000000000001,0.0
13.292,1.4
13.294,4.2
13.296000000000001,2.8
13.298,0.6
13.3,-0.2
13.302,-2.0
13.304,-1.0
13.306000000000001,2.4
13.308,4.0
13.31,1.4
13.312000000000001,-2.0
13.314,-0.6
13.316,4.6
13.318,3.8
13.32,5.0
13.322000000000001,3.6
13.324,1.6
13.326,3.4
13.328,5.8
13.33,3.6
13.332,1.0
13.334,9.4
13.336,10.6
13.338000000000001,5.4
13.34,1.4
13.342,1.2
13.344,3.6
13.346,7.0
13.348,7.6
13.35,3.8
13.352,8.6
13.354000000000001,13.6
13.356,14.0
13.358,10.8
13.36,7.2
13.362,8.6
13.364,8.6
13.366,14.2
13.368,14.2
13.370000000000001,13.8
13.372,9.0
13.374,13.2
13.376,20.0
13.378,24.2
13.38,23.0
13.382,21.6
13.384,14.8
13.386000000000001,14.6
13.388,15.0
13.39,15.6
13.392,14.2
13.394,22.0
13.396,19.8
13.398,19.2
13.4,14.0
13.402000000000001,4.6
13.404,6.0
13.406,10.2
13.408,10.6
13.41,2.8
13.412,2.4
13.414,2.2
13.416,3.8
13.418000000000001,8.4
13.42,7.6
13.422,8.0
13.424,10.0
13.426,0.8
13.428,-0.2
13.43,5.2
13.432,7.6
13.434000000000001,6.0
13.436,1.4
13.438,-0.2
13.44,0.2
13.442,0.0
13.444,3.4
13.446,2.2
13.448,5.2
13.450000000000001,4.2
13.452,0.0
13.454,0.6
13.456,-2.4
13.458,-3.6
13.46,-4.8
13.462,-5.4
13.464,-4.4
13.466000000000001,2.2
13.468,1.2
13.47,0.6
13.472,5.6
13.474,3.2
13.476,-0.2
13.478,-6.4
13.48,-5.6
13.482000000000001,-2.2
13.484,-2.2
13.486,-1.6
13.488,-0.4
13.49,0.6
13.492,0.2
13.494,-1.2
13.496,-4.8
13.498000000000001,-4.4
13.5,2.0
13.502,3.2
13.504,0.6
13.506,-2.2
13.508000000000001,-4.4
13.51,-2.2
13.512,-1.2
13.514000000000001,0.2
13.516,1.0
13.518,1.0
13.52,3.4
13.522,0.4
13.524000000000001,-2.6
13.526,-0.6
13.528,-1.0
13.530000000000001,-2.2
13.532,-3.0
13.534,-1.8
13.536,-3.4
13.538,-4.2
13.540000000000001,0.2
13.542,1.6
13.544,5.2
13.546000000000001,7.8
13.548,7.8
13.55,1.0
13.552,0.8
13.554,-5.0
13.556000000000001,-5.4
13.558,-8.2
13.56,-8.2
13.562000000000001,-2.2
13.564,-2.0
13.566,-3.2
13.568,2.2
13.57,0.8
13.572000000000001,-1.0
13.574,-2.0
13.576,4.8
13.578,4.2
13.58,-2.8
13.582,0.0
13.584,4.0
13.586,-2.2
13.588000000000001,-3.2
13.59,8.8
13.592,2.2
13.594,-5.2
13.596,-1.4
13.598,-0.6
13.6,1.2
13.602,7.2
13.604000000000001,9.2
13.606,9.2
13.608,9.0
13.61,9.2
13.612,8.4
13.614,5.8
13.616,5.8
13.618,3.6
13.620000000000001,2.8
13.622,-0.2
13.624,-0.8
13.626,3.4
13.628,8.6
13.63,5.2
13.632,2.6
13.634,3.8
13.636000000000001,-4.8
13.638,-5.2
13.64,-10.4
13.642,-7.2
13.644,-6.0
13.646,2.0
13.648,-3.2
13.65,-1.8
13.652000000000001,-0.6
13.654,-3.8
13.656,-3.0
13.658,-0.2
13.66,2.4
13.662,-0.8
13.664,-3.4
13.666,-3.8
13.668000000000001,-1.4
13.67,-0.8
13.672,-1.2
13.674,-3.8
13.676,-3.0
13.678,-0.8
13.68,-2.4
13.682,-4.0
13.684000000000001,-4.4
13.686,-8.0
13.688,-4.4
13.69,-5.0
13.692,-7.4
13.694,-9.0
13.696,-8.2
13.698,-3.2
13.700000000000001,-4.0
13.702,-0.2
13.704,5.8
13.706,12.4
13.708,16.0
13.71,20.4
13.712,26.6
13.714,26.4
13.716000000000001,26.0
13.718,32.0
13.72,29.8
13.722,24.2
13.724,21.0
13.726,19.4
13.728,12.4
13.73,8.6
13.732000000000001,2.4
13.734,0.4
13.736,-3.0
13.738,-2.8
13.74,-4.2
13.742,-4.2
13.744,-4.4
13.746,-6.4
13.748000000000001,-7.4
13.75,-4.6
13.752,-3.0
13.754,-3.8
13.756,-3.8
13.758000000000001,2.4
13.76,-0.4
13.762,1.6
13.764000000000001,1.6
13.766,-5.0
13.768,-3.4
13.77,-6.4
13.772,-7.4
13.774000000000001,-3.0
13.776,-3.0
13.778,-3.0
13.780000000000001,-2.6
13.782,-0.2
13.784,-4.8
13.786,-4.4
13.788,-8.4
13.790000000000001,-7.2
13.792,-4.2
13.794,-4.8
13.796000000000001,-3.2
13.798,-2.2
13.8,-0.6
13.802,-3.0
13.804,-2.4
13.806000000000001,-2.2
13.808,-2.0
13.81,-0.8
13.812000000000001,-1.8
13.814,-0.6
13.816,-0.2
13.818,-3.0
13.82,-8.2
13.822000000000001,-4.0
13.824,3.8
13.826,3.8
13.828,0.8
13.83,1.8
13.832,1.6
13.834,-2.8
13.836,-4.4
13.838000000000001,-1.0
13.84,-0.8
13.842,-3.8
13.844,-3.6
13.846,-1.8
13.848,-2.2
13.85,-5.4
13.852,-7.2
13.854000000000001,-7.6
13.856,4.8
13.858,8.6
13.86,5.0
13.862,1.4
13.864,2.4
13.866,-1.0
13.868,-5.0
13.870000000000001,1.0
13.872,6.0
13.874,6.2
13.876,9.2
13.878,7.8
13.88,4.6
13.882,4.6
13.884,4.6
13.886000000000001,5.2
13.888,9.2
13.89,10.4
13.892,8.6
13.894,5.8
13.896,5.0
13.898,5.4
13.9,3.2
13.902000000000001,6.4
13.904,6.8
13.906,10.0
13.908,17.6
13.91,14.8
13.912,11.6
13.914,13.4
13.916,12.0
13.918000000000001,12.6
13.92,19.0
13.922,23.2
13.924,16.8
13.926,14.2
13.928,18.4
13.93,17.8
13.932,18.8
13.934000000000001,17.6
13.936,19.0
13.938,10.8
13.94,10.6
13.942,11.6
13.944,13.4
13.946,12.8
13.948,13.6
13.950000000000001,16.4
13.952,15.8
13.954,13.6
13.956,12.0
13.958,8.6
13.96,7.0
13.962,8.2
13.964,10.0
13.966000000000001,10.2
13.968,7.2
13.97,7.6
13.972,4.0
13.974,3.4
13.976,0.4
13.978,1.2
13.98,3.6
13.982000000000001,0.2
13.984,-1.8
13.986,-1.8
13.988,-1.4
13.99,-0.2
13.992,-2.0
13.994,-3.0
13.996,0.4
13.998000000000001,3.6
14.0,-2.8
14.002,-3.6
14.004,-2.4
14.006,1.2
14.008000000000001,-1.6
14.01,-3.8
14.012,-0.2
14.014000000000001,4.8
14.016,2.8
14.018,0.2
14.02,-0.2
14.022,-1.6
14.024000000000001,-3.2
14.026,-0.8
14.028,-2.8
14.030000000000001,-3.6
14.032,-7.4
14.034,-4.8
14.036,0.2
14.038,3.2
14.040000000000001,-0.8
14.042,-3.4
14.044,-1.2
14.046000000000001,-4.0
14.048,-3.2
14.05,-1.6
14.052,-1.0
14.054,-4.6
14.056000000000001,-4.0
14.058,-1.6
14.06,-3.8
14.062000000000001,-3.4
14.064,-2.6
14.066,-3.0
14.068,-2.6
14.07,-1.4
14.072000000000001,-2.4
14.074,-2.0
14.076,-2.0
14.078000000000001,-1.4
14.08,-0.4
14.082,-1.8
14.084,0.2
14.086,0.2
14.088000000000001,-0.4
14.09,0.6
14.092,-0.2
14.094,-1.0
14.096,2.0
14.098,-2.6
14.1,3.2
14.102,1.8
14.104000000000001,1.0
14.106,-1.6
14.108,4.4
14.11,6.8
14.112,7.0
14.114,4.6
14.116,6.2
14.118,2.4
14.120000000000001,0.0
14.122,2.2
14.124,-0.6
14.126,-2.6
14.128,-0.6
14.13,0.2
14.132,3.6
14.134,9.2
14.136000000000001,6.6
14.138,4.8
14.14,1.8
14.142,2.8
14.144,-0.8
14.146,-1.2
14.148,1.6
14.15,5.2
14.152000000000001,5.6
14.154,6.2
14.156,6.8
14.158,7.0
14.16,1.6
14.162,-5.2
14.164,-6.6
14.166,8.6
14.168000000000001,6.6
14.17,4.8
14.172,1.8
14.174,3.6
14.176,5.0
14.178,2.6
14.18,3.4
14.182,2.2
14.184000000000001,-7.8
14.186,-7.6
14.188,0.0
14.19,1.6
14.192,-2.8
14.194,-2.8
14.196,-4.2
14.198,-3.8
14.200000000000001,-6.4
14.202,-3.2
14.204,-2.2
14.206,-3.6
14.208,-6.2
14.21,-2.6
14.212,-4.4
14.214,-0.2
14.216000000000001,-3.8
14.218,-4.6
14.22,-6.6
14.222,-6.0
14.224,-1.6
14.226,-0.8
14.228,-1.4
14.23,-1.8
14.232000000000001,2.0
14.234,-2.0
14.236,-4.8
14.238,-5.2
14.24,-2.0
14.242,0.8
14.244,6.8
14.246,9.8
14.248000000000001,14.6
14.25,15.0
14.252,18.0
14.254,19.0
14.256,32.8
14.258000000000001,29.2
14.26,28.4
14.262,29.8
14.264000000000001,24.8
14.266,20.8
14.268,22.6
14.27,19.4
14.272,12.2
14.274000000000001,1.6
14.276,-3.8
14.278,-5.0
14.280000000000001,-10.4
14.282,-13.2
14.284,-14.0
14.286,-12.2
14.288,-11.0
14.290000000000001,-1.6
14.292,-0.2
14.294,2.8
14.296000000000001,1.4
14.298,0.8
14.3,-3.4
14.302,-6.2
14.304,-5.4
14.306000000000001,-6.4
14.308,-1.2
14.31,1.8
14.312000000000001,2.0
14.314,0.2
14.316,0.8
14.318,2.4
14.32,-1.0
14.322000000000001,-1.6
14.324,-3.8
14.326,-7.4
14.328000000000001,-8.6
14.33,-10.2
14.332,-1.0
14.334,2.4
14.336,3.4
14.338000000000001,5.4
14.34,4.2
14.342,0.6
14.344,-3.0
14.346,-2.0
14.348,-0.2
14.35,-8.2
14.352,-11.6
14.354000000000001,-9.6
14.356,-4.2
14.358,1.2
14.36,2.2
14.362,1.0
14.364,-0.8
14.366,-1.6
14.368,-2.4
14.370000000000001,-2.6
14.372,-0.4
14.374,-0.2
14.376,1.0
14.378,-2.4
14.38,-2.8
14.382,-3.2
14.384,8.6
14.386000000000001,7.4
14.388,2.0
14.39,4.0
14.392,3.2
14.394,2.0
14.396,-2.0
14.398,0.0
14.4,2.4
14.402000000000001,1.4
14.404,3.8
14.406,1.2
14.408,7.6
14.41,5.2
14.412,2.0
14.414,1.2
14.416,1.6
14.418000000000001,4.6
14.42,6.2
14.422,3.4
14.424,5.8
14.426,8.4
14.428,5.0
14.43,1.0
14.432,3.8
14.434000000000001,9.8
14.436,9.8
14.438,10.8
14.44,10.4
14.442,11.2
14.444,12.4
14.446,10.8
14.448,10.8
14.450000000000001,8.4
14.452,8.0
14.454,8.8
14.456,14.8
14.458,14.4
14.46,13.4
14.462,16.8
14.464,20.2
14.466000000000001,16.6
14.468,13.0
14.47,15.2
14.472,15.0
14.474,13.8
14.476,13.2
14.478,11.6
14.48,11.2
14.482000000000001,14.8
14.484,19.6
14.486,26.8
14.488,22.6
14.49,13.8
14.492,17.2
14.494,17.8
14.496,12.8
14.498000000000001,8.4
14.5,4.0
14.502,6.2
14.504,5.8
14.506,4.6
14.508000000000001,7.8
14.51,4.0
14.512,1.8
14.514000000000001,6.2
14.516,13.2
14.518,16.2
14.52,11.6
14.522,-3.4
14.524000000000001,-5.4
14.526,-6.2
14.528,-8.0
14.530000000000001,-7.2
14.532,-3.2
14.534,-2.8
14.536,2.0
14.538,2.4
14.540000000000001,0.6
14.542,1.8
14.544,0.4
14.546000000000001,4.6
14.548,0.4
14.55,-4.8
14.552,-2.0
14.554,3.8
14.556000000000001,0.0
14.558,-3.4
14.56,-0.2
14.562000000000001,-1.6
14.564,-2.4
14.566,-1.8
14.568,-1.6
14.57,-3.0
14.572000000000001,-3.8
14.574,-6.0
14.576,-6.6
14.578000000000001,0.6
14.58,4.8
14.582,1.6
14.584,6.4
14.586,4.4
14.588000000000001,-8.8
14.59,-10.2
14.592,-4.0
14.594,-3.6
14.596,-2.6
14.598,1.8
14.6,7.4
14.602,3.6
14.604000000000001,-0.2
14.606,-1.6
14.608,3.8
14.61,5.0
14.612,0.2
14.614,-3.0
14.616,-6.0
14.618,-6.8
14.620000000000001,-1.6
14.622,1.8
14.624,2.0
14.626,0.4
14.628,2.0
14.63,2.4
14.632,3.8
14.634,3.6
14.636000000000001,1.0
14.638,-0.6
14.64,-2.0
14.642,-0.8
14.644,4.2
14.646,9.6
14.648,3.0
14.65,-5.0
14.652000000000001,-3.0
14.654,2.2
14.656,4.0
14.658,1.4
14.66,6.0
14.662,7.6
14.664,8.0
14.666,7.4
14.668000000000001,8.2
14.67,5.4
14.672,4.0
14.674,12.2
14.676,4.2
14.678,0.8
14.68,4.2
14.682,7.2
14.684000000000001,13.8
14.686,8.0
14.688,2.0
14.69,-0.8
14.692,0.4
14.694,1.2
14.696,-0.8
14.698,0.2
14.700000000000001,3.0
14.702,7.4
14.704,9.4
14.706,6.8
14.708,2.6
14.71,0.4
14.712,-4.4
14.714,-3.6
14.716000000000001,-0.2
14.718,-1.0
14.72,-2.0
14.722,-4.6
14.724,6.8
14.726,4.6
14.728,0.8
14.73,-0.2
14.732000000000001,-1.4
14.734,1.4
14.736,0.8
14.738,4.6
14.74,5.6
14.742,-3.2
14.744,-3.8
14.746,-1.4
14.748000000000001,-3.4
14.75,-1.6
14.752,1.0
14.754,3.0
14.756,5.2
14.758000000000001,5.6
14.76,5.8
14.762,2.0
14.764000000000001,-7.0
14.766,-4.4
14.768,-4.2
14.77,-4.0
14.772,-3.0
14.774000000000001,-5.2
14.776,-9.2
14.778,-8.0
14.780000000000001,-8.6
14.782,12.4
14.784,10.0
14.786,13.0
14.788,17.4
14.790000000000001,21.2
14.792,24.6
14.794,26.4
14.796000000000001,28.6
14.798,33.4
14.8,33.0
14.802,27.8
14.804,22.6
14.806000000000001,20.6
14.808,16.0
14.81,13.4
14.812000000000001,9.2
14.814,1.4
14.816,1.6
14.818,0.4
14.82,-2.0
14.822000000000001,-0.4
14.824,-2.2
14.826,-0.6
14.828000000000001,-2.0
14.83,-2.4
14.832,0.2
14.834,2.4
14.836,5.4
14.838000000000001,6.2
14.84,2.4
14.842,-0.2
14.844000000000001,-1.8
14.846,-4.2
14.848,-8.4
14.85,-11.8
14.852,-7.0
14.854000000000001,1.2
14.856,-3.8
14.858,-4.8
14.86,1.8
14.862,-2.0
14.864,-1.8
14.866,0.0
14.868,3.2
14.870000000000001,3.0
14.872,6.8
14.874,4.0
14.876,1.8
14.878,5.8
14.88,5.8
14.882,4.0
14.884,3.2
14.886000000000001,1.6
14.888,0.6
14.89,0.8
14.892,2.0
14.894,-3.0
14.896,-9.6
14.898,-15.4
14.9,-16.8
14.902000000000001,-8.4
14.904,2.6
14.906,3.6
14.908,8.0
14.91,13.4
14.912,7.8
14.914,4.4
14.916,1.2
14.918000000000001,1.6
14.92,2.4
14.922,0.2
14.924,-0.2
14.926,3.8
14.928,5.4
14.93,4.6
14.932,5.4
14.934000000000001,6.2
14.936,3.6
14.938,5.8
14.94,3.0
14.942,1.8
14.944,0.8
14.946,-0.6
14.948,-5.8
14.950000000000001,-7.0
14.952,1.6
14.954,7.8
14.956,10.0
14.958,9.6
14.96,10.8
14.962,11.4
14.964,12.2
14.966000000000001,16.2
14.968,15.4
14.97,19.2
14.972,14.8
14.974,5.2
14.976,5.4
14.978,9.4
14.98,7.6
14.982000000000001,6.8
14.984,9.0
14.986,10.0
14.988,8.4
14.99,6.8
14.992,3.4
14.994,6.0
14.996,10.6
14.998000000000001,10.8
15.0,10.2
15.002,18.0
15.004,22.4
15.006,25.6
15.008000000000001,26.4
15.01,22.6
15.012,19.6
15.014000000000001,21.6
15.016,19.0
15.018,19.2
15.02,19.6
15.022,19.8
15.024000000000001,18.4
15.026,16.0
15.028,10.8
15.030000000000001,11.2
15.032,10.4
15.034,10.2
15.036,14.6
15.038,14.8
15.040000000000001,13.6
15.042,10.4
15.044,8.2
15.046000000000001,7.0
15.048,10.0
15.05,10.2
15.052,9.2
15.054,4.6
15.056000000000001,3.6
15.058,3.6
15.06,2.0
15.062000000000001,2.6
15.064,2.4
15.066,0.8
15.068,3.0
15.07,3.6
15.072000000000001,-1.4
15.074,-2.4
15.076,0.2
15.078000000000001,4.0
15.08,2.2
15.082,-0.2
15.084,-3.0
15.086,-6.0
15.088000000000001,-5.8
15.09,-5.6
15.092,0.2
15.094000000000001,5.6
15.096,5.6
15.098,8.4
15.1,9.2
15.102,5.0
15.104000000000001,4.4
15.106,0.4
15.108,0.0
15.11,-0.4
15.112,-1.8
15.114,-6.4
15.116,-3.2
15.118,-1.2
15.120000000000001,-7.6
15.122,-9.2
15.124,-9.0
15.126,2.8
15.128,2.0
15.13,1.4
15.132,3.4
15.134,2.4
15.136000000000001,2.0
15.138,1.2
15.14,0.0
15.142,-5.6
15.144,-1.8
15.146,0.8
15.148,0.0
15.15,2.8
15.152000000000001,6.8
15.154,5.6
15.156,4.6
15.158,4.0
15.16,0.8
15.162,2.2
15.164,3.8
15.166,2.0
15.168000000000001,5.2
15.17,4.6
15.172,3.0
15.174,2.0
15.176,3.0
15.178,2.0
15.18,-2.4
15.182,-6.6
15.184000000000001,-8.6
15.186,4.6
15.188,6.0
15.19,2.8
15.192,-4.2
15.194,-6.4
15.196,13.6
15.198,16.8
15.200000000000001,12.8
15.202,9.4
15.204,7.8
15.206,8.8
15.208,7.4
15.21,10.6
15.212,8.2
15.214,8.2
15.216000000000001,7.0
15.218,6.2
15.22,5.0
15.222,3.6
15.224,1.0
15.226,1.4
15.228,-2.2
15.23,-8.2
15.232000000000001,-14.8
15.234,0.4
15.236,10.2
15.238,13.2
15.24,13.2
15.242,10.2
15.244,8.6
15.246,4.2
15.248000000000001,4.2
15.25,1.0
15.252,3.4
15.254,3.6
15.256,3.0
15.258000000000001,1.2
15.26,0.2
15.262,-0.2
15.264000000000001,-2.6
15.266,-4.0
15.268,-2.4
15.27,-5.4
15.272,-8.0
15.274000000000001,-9.0
15.276,-7.0
15.278,4.8
15.280000000000001,12.0
15.282,7.4
15.284,-3.4
15.286,-5.4
15.288,-6.4
15.290000000000001,3.2
15.292,7.8
15.294,5.2
15.296000000000001,3.4
15.298,-0.8
15.3,-3.0
15.302,-1.8
15.304,-1.2
15.306000000000001,-3.6
15.308,-5.6
15.31,-6.6
15.312000000000001,-4.8
15.314,-1.0
15.316,2.4
15.318,6.6
15.32,10.8
15.322000000000001,8.6
15.324,14.6
15.326,20.6
15.328000000000001,24.8
15.33,27.0
15.332,27.0
15.334,30.2
15.336,33.8
15.338000000000001,35.0
15.34,27.4
15.342,22.6
15.344000000000001,18.2
15.346,15.2
15.348,10.2
15.35,5.2
15.352,2.0
15.354000000000001,-1.4
15.356,-3.4
15.358,-8.0
15.36,-2.8
15.362,-0.8
15.364,6.2
15.366,7.8
15.368,6.2
15.370000000000001,-3.6
15.372,-3.2
15.374,-2.8
15.376,-3.2
15.378,-3.8
15.38,-3.4
15.382,0.8
15.384,1.0
15.386000000000001,-0.6
15.388,-6.4
15.39,-1.2
15.392,-3.4
15.394,-4.8
15.396,-8.4
15.398,-4.2
15.4,-3.8
15.402000000000001,0.4
15.404,-0.2
15.406,-1.4
15.408,2.6
15.41,2.2
15.412,-0.6
15.414,0.8
15.416,-4.0
15.418000000000001,-1.6
15.42,6.8
15.422,5.0
15.424,-3.2
15.426,-1.6
15.428,-5.4
15.43,-7.8
15.432,1.6
15.434000000000001,1.8
15.436,-0.6
15.438,0.2
15.44,1.2
15.442,4.4
15.444,7.8
15.446,9.6
15.448,4.6
15.450000000000001,3.0
15.452,-5.2
15.454,-5.2
15.456,-4.8
15.458,-0.2
15.46,0.2
15.462,3.0
15.464,7.4
15.466000000000001,8.2
15.468,9.0
15.47,7.4
15.472,3.2
15.474,4.2
15.476,1.4
15.478,1.8
15.48,0.6
15.482000000000001,2.4
15.484,3.8
15.486,4.4
15.488,2.6
15.49,2.6
15.492,0.0
15.494,-4.4
15.496,5.8
15.498000000000001,8.6
15.5,5.0
15.502,3.8
15.504,4.4
15.506,5.6
15.508000000000001,9.2
15.51,11.2
15.512,13.0
15.514000000000001,12.4
15.516,12.2
15.518,5.6
15.52,2.2
15.522,6.8
15.524000000000001,11.6
15.526,9.2
15.528,13.0
15.530000000000001,14.0
15.532,19.0
15.534,20.6
15.536,20.4
15.538,18.8
15.540000000000001,19.8
15.542,17.6
15.544,16.2
15.546000000000001,13.0
15.548,10.4
15.55,9.6
15.552,13.2
15.554,16.2
15.556000000000001,19.2
15.558,17.2
15.56,18.2
15.562000000000001,19.2
15.564,17.4
15.566,14.2
15.568,9.8
15.57,8.8
15.572000000000001,10.2
15.574,11.4
15.576,12.6
15.578000000000001,12.4
15.58,11.8
15.582,10.8
15.584,9.8
15.586,9.2
15.588000000000001,9.0
15.59,4.8
15.592,0.6
15.594000000000001,0.4
15.596,0.4
15.598,-0.2
15.6,2.4
15.602,3.8
15.604000000000001,5.6
15.606,2.0
15.608,-4.0
15.610000000000001,-0.6
15.612,-3.6
15.614,-6.2
15.616,-6.4
15.618,-3.4
15.620000000000001,-1.6
15.622,3.0
15.624,0.8
15.626,-2.8
15.628,1.0
15.63,-0.4
15.632,-0.4
15.634,2.0
15.636000000000001,7.2
15.638,4.6
15.64,1.8
15.642,0.2
15.644,2.2
15.646,-1.0
15.648,-1.6
15.65,-3.2
15.652000000000001,-1.8
15.654,0.4
15.656,-1.8
15.658,0.0
15.66,-0.2
15.662,-0.6
15.664,-0.6
15.666,3.0
15.668000000000001,-0.6
15.67,0.6
15.672,-2.2
15.674,-3.4
15.676,-2.0
15.678,7.6
15.68,1.4
15.682,-3.6
15.684000000000001,-3.4
15.686,2.2
15.688,2.2
15.69,0.0
15.692,1.4
15.694,4.2
15.696,3.6
15.698,-1.4
15.700000000000001,-9.4
15.702,-7.6
15.704,-5.0
15.706,-2.0
15.708,-3.0
15.71,-3.0
15.712,6.8
15.714,9.4
15.716000000000001,7.4
15.718,5.6
15.72,5.0
15.722,2.8
15.724,2.2
15.726,2.8
15.728,1.0
15.73,2.0
15.732000000000001,5.2
15.734,5.8
15.736,1.2
15.738,-5.0
15.74,-5.0
15.742,7.0
15.744,9.4
15.746,8.2
15.748000000000001,8.0
15.75,4.8
15.752,4.6
15.754,4.8
15.756,4.6
15.758000000000001,2.8
15.76,2.8
15.762,2.4
15.764000000000001,2.8
15.766,2.4
15.768,5.0
15.77,8.0
15.772,11.8
15.774000000000001,14.6
15.776,10.4
15.778,5.2
15.780000000000001,3.0
15.782,-4.6
15.784,-7.0
15.786,-5.2
15.788,-4.0
15.790000000000001,-4.2
15.792,-2.0
15.794,0.8
15.796000000000001,-1.4
15.798,-1.8
15.8,0.8
15.802,3.2
15.804,4.4
15.806000000000001,2.0
15.808,2.0
15.81,2.0
15.812000000000001,-0.8
15.814,-0.4
15.816,-1.8
15.818,0.8
15.82,1.2
15.822000000000001,-4.6
15.824,-6.8
15.826,-3.6
15.828000000000001,-0.4
15.83,-2.0
15.832,-3.2
15.834,-3.6
15.836,-6.8
15.838000000000001,-9.2
15.84,-7.4
15.842,-2.6
15.844000000000001,-1.0
15.846,-0.6
15.848,0.6
15.85,0.6
15.852,2.4
15.854000000000001,12.2
15.856,5.2
15.858,-3.6
15.860000000000001,-3.2
15.862,3.8
15.864,7.2
15.866,9.6
15.868,15.4
15.870000000000001,19.6
15.872,21.0
15.874,22.2
15.876,23.8
15.878,26.2
15.88,26.8
15.882,28.0
15.884,20.2
15.886000000000001,20.8
15.888,19.6
15.89,15.8
15.892,12.6
15.894,5.6
15.896,-3.8
15.898,-3.0
15.9,-4.8
15.902000000000001,-5.4
15.904,-7.6
15.906,-4.4
15.908,-0.2
15.91,2.6
15.912,0.4
15.914,-4.2
15.916,-8.2
15.918000000000001,-7.6
15.92,-2.8
15.922,0.2
15.924,-0.6
15.926,1.4
15.928,3.8
15.93,7.6
15.932,10.2
15.934000000000001,4.4
15.936,-2.8
15.938,-7.2
15.94,-10.0
15.942,-7.4
15.944,-2.2
15.946,-2.4
15.948,-3.0
15.950000000000001,-1.6
15.952,-5.0
15.954,-4.2
15.956,-4.0
15.958,-4.0
15.96,-1.0
15.962,-3.2
15.964,-0.4
15.966000000000001,-3.6
15.968,-2.0
15.97,1.4
15.972,5.2
15.974,3.0
15.976,0.6
15.978,-3.4
15.98,-7.2
15.982000000000001,-7.2
15.984,-3.6
15.986,2.8
15.988,5.8
15.99,2.4
15.992,3.6
15.994,-2.8
15.996,-0.8
15.998000000000001,2.4
16.0,1.8
16.002,1.6
16.004,1.4
16.006,-0.6
16.008,-4.4
16.01,-1.4
16.012,9.6
16.014,10.8
16.016000000000002,12.2
16.018,4.4
16.02,-2.2
16.022000000000002,-10.2
16.024,-8.8
16.026,-6.2
16.028,0.6
16.03,6.0
16.032,7.4
16.034,6.8
16.036,8.2
16.038,8.8
16.04,5.8
16.042,6.8
16.044,5.8
16.046,5.8
16.048000000000002,7.4
16.05,7.0
16.052,9.6
16.054000000000002,8.4
16.056,3.8
16.058,-1.6
16.06,-5.8
16.062,1.2
16.064,10.4
16.066,12.0
16.068,8.8
16.07,8.4
16.072,12.2
16.074,18.4
16.076,20.2
16.078,18.2
16.080000000000002,17.0
16.082,18.2
16.084,17.8
16.086000000000002,18.4
16.088,20.0
16.09,20.0
16.092,21.2
16.094,22.6
16.096,21.2
16.098,19.8
16.1,15.2
16.102,14.0
16.104,12.8
16.106,10.8
16.108,9.8
16.11,3.0
16.112000000000002,-3.6
16.114,5.4
16.116,14.0
16.118000000000002,15.2
16.12,12.8
16.122,12.0
16.124,10.2
16.126,9.0
16.128,7.6
16.13,6.0
16.132,5.8
16.134,-0.2
16.136,1.0
16.138,-0.4
16.14,1.2
16.142,1.4
16.144000000000002,-0.2
16.146,1.8
16.148,1.6
16.15,2.8
16.152,5.2
16.154,7.0
16.156,6.6
16.158,1.8
16.16,-3.0
16.162,-5.0
16.164,-3.8
16.166,-4.6
16.168,-5.6
16.17,-3.4
16.172,0.0
16.174,1.8
16.176000000000002,-0.2
16.178,-3.4
16.18,-3.6
16.182,-1.0
16.184,-0.4
16.186,-0.6
16.188,-2.6
16.19,-3.6
16.192,-5.0
16.194,-4.2
16.196,-7.2
16.198,-2.6
16.2,-5.2
16.202,-5.6
16.204,-6.0
16.206,-2.0
16.208000000000002,0.8
16.21,2.0
16.212,6.0
16.214,8.2
16.216,5.6
16.218,2.6
16.22,-1.4
16.222,-4.6
16.224,-9.2
16.226,-13.6
16.228,-2.2
16.23,3.0
16.232,3.6
16.234,2.2
16.236,2.8
16.238,-1.4
16.240000000000002,-2.2
16.242,-2.8
16.244,-2.4
16.246,-2.4
16.248,-1.0
16.25,1.0
16.252,-1.0
16.254,2.8
16.256,8.0
16.258,1.6
16.26,-1.8
16.262,1.0
16.264,-2.2
16.266000000000002,-3.8
16.268,0.2
16.27,0.4
16.272000000000002,2.4
16.274,1.2
16.276,2.4
16.278,0.0
16.28,0.0
16.282,1.6
16.284,5.0
16.286,6.0
16.288,7.6
16.29,3.8
16.292,2.0
16.294,-1.8
16.296,1.0
16.298000000000002,-0.6
16.3,0.0
16.302,3.8
16.304000000000002,4.8
16.306,5.4
16.308,7.0
16.31,0.8
16.312,2.8
16.314,3.0
16.316,2.2
16.318,3.8
16.32,5.6
16.322,5.8
16.324,1.8
16.326,0.6
16.328,1.2
16.330000000000002,3.4
16.332,1.6
16.334,2.2
16.336000000000002,4.0
16.338,-0.4
16.34,-3.0
16.342,-1.8
16.344,1.2
16.346,-2.2
16.348,-3.6
16.35,-3.4
16.352,-4.6
16.354,0.8
16.356,-1.4
16.358,-0.8
16.36,-0.2
16.362000000000002,2.8
16.364,-0.6
16.366,-3.8
16.368000000000002,-2.2
16.37,-5.0
16.372,-2.8
16.374,-5.4
16.376,-2.6
16.378,3.8
16.38,-0.6
16.382,-2.8
16.384,-2.8
16.386,-1.6
16.388,0.2
16.39,-1.0
16.392,-2.2
16.394000000000002,-2.2
16.396,-2.6
16.398,-2.4
16.4,-6.4
16.402,0.8
16.404,2.2
16.406,-6.4
16.408,-8.2
16.41,-9.6
16.412,-4.8
16.414,1.4
16.416,5.0
16.418,12.6
16.42,19.0
16.422,26.6
16.424,30.8
16.426000000000002,28.2
16.428,28.0
16.43,26.0
16.432,27.0
16.434,23.0
16.436,18.6
16.438,16.4
16.44,15.2
16.442,4.0
16.444,-6.8
16.446,-8.0
16.448,-3.6
16.45,-3.6
16.452,-8.2
16.454,-4.6
16.456,2.0
16.458000000000002,-1.6
16.46,-1.8
16.462,1.2
16.464,-1.8
16.466,-4.0
16.468,-5.2
16.47,-4.2
16.472,-3.4
16.474,-1.6
16.476,3.2
16.478,4.0
16.48,0.6
16.482,-3.4
16.484,-6.0
16.486,-12.4
16.488,-8.6
16.490000000000002,-7.6
16.492,-5.2
16.494,-2.0
16.496,0.0
16.498,-2.8
16.5,-5.4
16.502,-1.0
16.504,-0.8
16.506,-3.2
16.508,1.0
16.51,6.4
16.512,7.6
16.514,2.2
16.516000000000002,-4.8
16.518,-3.6
16.52,-3.0
16.522000000000002,-7.2
16.524,-10.0
16.526,-8.4
16.528,-4.8
16.53,-4.6
16.532,-3.8
16.534,-1.8
16.536,0.2
16.538,1.4
16.54,-0.8
16.542,1.6
16.544,1.6
16.546,1.6
16.548000000000002,1.0
16.55,1.4
16.552,3.4
16.554000000000002,3.8
16.556,3.8
16.558,5.2
16.56,4.0
16.562,4.4
16.564,2.4
16.566,-4.2
16.568,-6.8
16.57,-0.6
16.572,-1.0
16.574,-1.0
16.576,2.6
16.578,-0.4
16.580000000000002,-3.4
16.582,-3.6
16.584,1.6
16.586000000000002,1.0
16.588,4.4
16.59,9.2
16.592,11.2
16.594,10.4
16.596,7.0
16.598,2.0
16.6,-1.2
16.602,3.2
16.604,3.6
16.606,4.2
16.608,5.0
16.61,6.8
16.612000000000002,9.0
16.614,12.6
16.616,13.4
16.618000000000002,12.4
16.62,9.6
16.622,9.2
16.624,10.8
16.626,15.0
16.628,9.8
16.63,12.4
16.632,13.4
16.634,17.8
16.636,17.8
16.638,19.2
16.64,18.4
16.642,16.8
16.644000000000002,14.8
16.646,17.0
16.648,15.0
16.65,12.4
16.652,7.6
16.654,2.4
16.656,10.0
16.658,17.0
16.66,13.8
16.662,15.6
16.664,12.0
16.666,9.2
16.668,9.2
16.67,8.0
16.672,9.8
16.674,10.0
16.676000000000002,9.2
16.678,9.8
16.68,5.2
16.682,4.4
16.684,1.2
16.686,-0.8
16.688,-2.6
16.69,-3.0
16.692,-2.0
16.694,-2.0
16.696,-5.0
16.698,0.8
16.7,8.2
16.702,10.2
16.704,4.2
16.706,2.4
16.708000000000002,-4.6
16.71,-7.8
16.712,-5.0
16.714,-4.4
16.716,-5.6
16.718,-2.2
16.72,-2.2
16.722,-3.0
16.724,-3.8
16.726,-1.8
16.728,-1.6
16.73,0.4
16.732,-1.4
16.734,-6.4
16.736,-4.0
16.738,-2.0
16.740000000000002,-2.2
16.742,1.2
16.744,-1.8
16.746,-4.8
16.748,-9.0
16.75,-2.4
16.752,2.0
16.754,1.0
16.756,-1.4
16.758,-0.2
16.76,0.6
16.762,0.0
16.764,-2.2
16.766000000000002,-0.8
16.768,-2.8
16.77,-1.6
16.772000000000002,-1.0
16.774,-0.6
16.776,-2.4
16.778,-2.8
16.78,-4.0
16.782,-2.0
16.784,-5.6
16.786,-10.0
16.788,-4.6
16.79,0.6
16.792,-0.4
16.794,-1.4
16.796,1.4
16.798000000000002,1.4
16.8,-1.4
16.802,-1.2
16.804000000000002,-2.2
16.806,-2.0
16.808,-6.4
16.81,-7.0
16.812,-3.2
16.814,-1.0
16.816,5.0
16.818,6.4
16.82,2.8
16.822,2.4
16.824,1.0
16.826,-4.2
16.828,-5.8
16.830000000000002,-4.2
16.832,-2.2
16.834,-5.0
16.836000000000002,-1.2
16.838,-1.0
16.84,1.0
16.842,1.2
16.844,2.2
16.846,1.0
16.848,-0.8
16.85,-8.6
16.852,-0.2
16.854,0.8
16.856,0.6
16.858,-0.6
16.86,-0.8
16.862000000000002,-0.6
16.864,0.6
16.866,0.4
16.868000000000002,4.6
16.87,3.8
16.872,6.8
16.874,6.6
16.876,1.0
16.878,-2.0
16.88,-4.8
16.882,-1.0
16.884,3.8
16.886,6.4
16.888,3.6
16.89,0.8
16.892,-0.6
16.894000000000002,-4.4
16.896,-5.4
16.898,1.4
16.9,1.2
16.902,-1.2
16.904,0.2
16.906,-0.8
16.908,-2.0
16.91,0.2
16.912,-3.2
16.914,-0.8
16.916,4.0
16.918,4.8
16.92,1.2
16.922,-2.6
16.924,-4.6
16.926000000000002,-6.8
16.928,-5.4
16.93,-0.4
16.932,-4.2
16.934,-3.0
16.936,-1.8
16.938,-2.0
16.94,-1.6
16.942,-1.0
16.944,-2.0
16.946,-3.6
16.948,0.8
16.95,4.0
16.952,0.0
16.954,-5.6
16.956,-4.6
16.958000000000002,-4.2
16.96,-4.2
16.962,-4.4
16.964,-7.8
16.966,-0.6
16.968,-2.6
16.97,-2.6
16.972,-3.4
16.974,-5.8
16.976,-8.8
16.978,-9.2
16.98,-14.6
16.982,-15.2
16.984,-8.6
16.986,3.2
16.988,7.8
16.990000000000002,12.2
16.992,14.4
16.994,20.0
16.996,24.6
16.998,25.4
17.0,26.0
17.002,23.8
17.004,24.4
17.006,22.0
17.008,16.8
17.01,17.0
17.012,13.6
17.014,7.8
17.016000000000002,2.0
17.018,0.4
17.02,-1.2
17.022000000000002,-1.8
17.024,-5.8
17.026,-5.4
17.028,-0.8
17.03,1.4
17.032,-2.4
17.034,-2.0
17.036,2.2
17.038,3.0
17.04,-1.0
17.042,-3.0
17.044,-2.2
17.046,-1.2
17.048000000000002,-0.2
17.05,-3.8
17.052,-10.8
17.054000000000002,-8.4
17.056,-7.0
17.058,-8.8
17.06,-9.4
17.062,-8.6
17.064,-2.8
17.066,-3.2
17.068,-3.0
17.07,-3.4
17.072,-1.6
17.074,-3.6
17.076,-6.8
17.078,-4.2
17.080000000000002,-2.2
17.082,-5.0
17.084,-5.2
17.086000000000002,-5.2
17.088,-2.6
17.09,-1.6
17.092,-1.4
17.094,-1.6
17.096,-1.4
17.098,-1.4
17.1,-0.8
17.102,-1.4
17.104,-1.0
17.106,-2.2
17.108,-3.4
17.11,-1.6
17.112000000000002,0.0
17.114,-0.2
17.116,-0.6
17.118000000000002,-3.0
17.12,0.0
17.122,1.6
17.124,0.0
17.126,-4.2
17.128,-5.4
17.13,-4.0
17.132,-3.0
17.134,-2.2
17.136,2.0
17.138,2.2
17.14,0.6
17.142,-3.0
17.144000000000002,-4.6
17.146,-5.8
17.148,0.4
17.150000000000002,3.2
17.152,6.8
17.154,5.2
17.156,8.4
17.158,8.8
17.16,1.8
17.162,3.2
17.164,4.0
17.166,3.2
17.168,1.4
17.17,-0.4
17.172,1.0
17.174,2.0
17.176000000000002,6.2
17.178,10.4
17.18,10.0
17.182,5.8
17.184,4.2
17.186,7.4
17.188,2.2
17.19,3.4
17.192,0.8
17.194,5.0
17.196,14.8
17.198,22.4
17.2,19.0
17.202,18.2
17.204,21.0
17.206,18.0
17.208000000000002,14.6
17.21,9.6
17.212,10.6
17.214,11.8
17.216,15.6
17.218,20.0
17.22,19.6
17.222,19.0
17.224,19.2
17.226,15.8
17.228,14.8
17.23,14.4
17.232,13.6
17.234,14.2
17.236,13.6
17.238,8.8
17.240000000000002,5.0
17.242,3.4
17.244,5.8
17.246,5.8
17.248,6.2
17.25,6.0
17.252,3.4
17.254,0.6
17.256,1.0
17.258,3.6
17.26,2.6
17.262,3.6
17.264,1.8
17.266000000000002,2.2
17.268,2.0
17.27,1.2
17.272000000000002,1.0
17.274,3.6
17.276,0.0
17.278,-3.4
17.28,-4.8
17.282,-5.4
17.284,-5.2
17.286,-0.2
17.288,-0.8
17.29,-1.8
17.292,-0.4
17.294,-2.4
17.296,-2.2
17.298000000000002,-0.8
17.3,-1.8
17.302,-4.4
17.304000000000002,-4.6
17.306,-2.2
17.308,-2.0
17.31,-1.8
17.312,1.2
17.314,0.0
17.316,-4.8
17.318,-5.8
17.32,-9.2
17.322,-17.0
17.324,-6.4
17.326,-2.6
17.328,-2.6
17.330000000000002,-0.4
17.332,1.8
17.334,3.2
17.336000000000002,0.6
17.338,-1.2
17.34,-2.8
17.342,-3.6
17.344,0.2
17.346,5.6
17.348,3.8
17.35,-5.2
17.352,-9.0
17.354,-9.2
17.356,0.0
17.358,-1.2
17.36,-2.6
17.362000000000002,-2.0
17.364,-2.6
17.366,-3.0
17.368000000000002,-4.4
17.37,-9.4
17.372,-8.6
17.374,-1.4
17.376,-0.8
17.378,-2.0
17.38,-3.4
17.382,-4.6
17.384,-1.4
17.386,-3.6
17.388,-4.0
17.39,-3.6
17.392,-1.2
17.394000000000002,-0.4
17.396,2.6
17.398,1.0
17.400000000000002,3.4
17.402,2.4
17.404,3.4
17.406,2.6
17.408,0.4
17.41,-6.2
17.412,-5.0
17.414,-7.8
17.416,-6.0
17.418,-8.2
17.42,-0.4
17.422,3.4
17.424,3.4
17.426000000000002,5.4
17.428,0.8
17.43,-0.4
17.432,-6.2
17.434,-4.4
17.436,-2.8
17.438,1.4
17.44,2.0
17.442,1.6
17.444,-1.2
17.446,-5.0
17.448,-6.0
17.45,-2.0
17.452,-1.8
17.454,-2.6
17.456,-1.8
17.458000000000002,-1.8
17.46,2.2
17.462,4.0
17.464,0.6
17.466,0.8
17.468,3.2
17.47,2.0
17.472,1.0
17.474,0.2
17.476,4.6
17.478,4.6
17.48,1.8
17.482,3.2
17.484,4.8
17.486,0.0
17.488,-4.8
17.490000000000002,-3.2
17.492,-2.6
17.494,0.4
17.496,2.6
17.498,2.0
17.5,3.2
17.502,0.8
17.504,-2.8
17.506,-2.6
17.508,-4.0
17.51,-1.8
17.512,2.2
17.514,3.8
17.516000000000002,3.4
17.518,4.8
17.52,-5.8
17.522000000000002,-9.0
17.524,-11.2
17.526,-7.0
17.528,-5.6
17.53,-4.4
17.532,-7.2
17.534,-8.2
17.536,-3.2
17.538,0.0
17.54,-3.2
17.542,-3.2
17.544,-0.6
17.546,1.6
17.548000000000002,1.0
17.55,2.2
17.552,-1.6
17.554000000000002,-5.8
17.556,-7.0
17.558,-8.8
17.56,-10.2
17.562,-9.0
17.564,-10.0
17.566,-1.8
17.568,3.0
17.57,-3.6
17.572,-7.6
17.574,-8.8
17.576,-9.2
17.578,-3.6
17.580000000000002,-1.4
17.582,1.2
17.584,4.6
17.586000000000002,4.8
17.588,8.2
17.59,13.8
17.592,21.6
17.594,23.0
17.596,25.4
17.598,35.2
17.6,34.2
17.602,30.6
17.604,24.4
17.606,18.4
17.608,15.0
17.61,10.8
17.612000000000002,8.4
17.614,4.4
17.616,3.8
17.618000000000002,-3.6
17.62,-5.6
17.622,-11.6
17.624,-11.4
17.626,-6.8
17.628,-5.0
17.63,-4.0
17.632,-1.8
17.634,-3.0
17.636,-2.2
17.638,-2.8
17.64,-5.4
17.642,-7.0
17.644000000000002,-11.0
17.646,-6.0
17.648,-2.6
17.650000000000002,-1.8
17.652,-0.6
17.654,-0.8
17.656,-3.4
17.658,-5.2
17.66,-1.8
17.662,-2.6
17.664,-5.0
17.666,-0.8
17.668,-0.2
17.67,-0.8
17.672,-2.8
17.674,-6.4
17.676000000000002,-4.6
17.678,-3.6
17.68,2.6
17.682,-1.8
17.684,-8.6
17.686,-9.0
17.688,-1.8
17.69,-5.8
17.692,-11.8
17.694,1.8
17.696,1.8
17.698,1.8
17.7,0.0
17.702,-2.8
17.704,-7.4
17.706,-5.2
17.708000000000002,-5.0
17.71,-3.2
17.712,-2.2
17.714,-0.4
17.716,-0.4
17.718,-7.8
17.72,-9.8
17.722,-10.2
17.724,-1.0
17.726,3.6
17.728,5.2
17.73,6.0
17.732,4.0
17.734,-2.6
17.736,-1.0
17.738,2.0
17.740000000000002,1.8
17.742,0.8
17.744,2.8
17.746,4.0
17.748,-1.8
17.75,-4.4
17.752,-3.2
17.754,-3.0
17.756,-1.0
17.758,4.2
17.76,5.0
17.762,3.6
17.764,3.8
17.766000000000002,5.4
17.768,6.4
17.77,2.8
17.772000000000002,7.6
17.774,7.4
17.776,3.8
17.778,3.6
17.78,3.0
17.782,3.2
17.784,6.4
17.786,6.8
17.788,2.4
17.79,7.0
17.792,10.0
17.794,7.6
17.796,9.8
17.798000000000002,11.8
17.8,10.0
17.802,11.6
17.804000000000002,14.2
17.806,16.4
17.808,16.2
17.81,16.2
17.812,16.8
17.814,16.2
17.816,14.0
17.818,14.8
17.82,18.8
17.822,17.2
17.824,18.6
17.826,15.8
17.828,16.2
17.830000000000002,10.2
17.832,9.0
17.834,9.4
17.836000000000002,8.6
17.838,8.0
17.84,7.4
17.842,5.8
17.844,5.8
17.846,3.4
17.848,2.4
17.85,4.6
17.852,-0.6
17.854,1.0
17.856,5.0
17.858,7.6
17.86,1.8
17.862000000000002,-3.2
17.864,-2.2
17.866,-4.8
17.868000000000002,-5.6
17.87,-1.4
17.872,-3.0
17.874,-4.2
17.876,-3.4
17.878,-0.2
17.88,-2.6
17.882,-4.2
17.884,-4.2
17.886,-3.8
17.888,-3.6
17.89,-3.8
17.892,-5.0
17.894000000000002,-1.2
17.896,4.8
17.898,0.8
17.900000000000002,-1.4
17.902,-1.6
17.904,-4.8
17.906,-3.6
17.908,-3.0
17.91,-5.4
17.912,-3.2
17.914,-2.4
17.916,-2.8
17.918,-2.0
17.92,0.4
17.922,2.0
17.924,-4.0
17.926000000000002,-2.4
17.928,-5.0
17.93,-5.4
17.932,-6.8
17.934,-3.8
17.936,-2.2
17.938,-1.0
17.94,-1.4
17.942,0.6
17.944,-2.2
17.946,-7.0
17.948,-10.4
17.95,-9.8
17.952,-1.0
17.954,2.0
17.956,-2.6
17.958000000000002,-2.0
17.96,-0.6
17.962,-1.2
17.964,-0.8
17.966,-3.2
17.968,-2.2
17.97,-1.6
17.972,-2.0
17.974,-2.8
17.976,-1.6
17.978,-1.6
17.98,-1.2
17.982,-3.2
17.984,-4.8
17.986,1.0
17.988,-1.2
17.990000000000002,-5.2
17.992,-5.0
17.994,-7.8
17.996,-0.2
17.998,2.2
18.0,-5.6
18.002,-9.6
18.004,-5.6
18.006,-5.2
18.008,0.4
18.01,4.6
18.012,4.0
18.014,1.4
18.016000000000002,-0.4
18.018,-4.2
18.02,-8.0
18.022000000000002,-4.2
18.024,-4.8
18.026,-4.6
18.028,-4.0
18.03,-0.8
18.032,-1.6
18.034,-3.4
18.036,-6.2
18.038,-6.4
18.04,-1.2
18.042,2.6
18.044,2.0
18.046,-1.4
18.048000000000002,-1.8
18.05,-3.0
18.052,-1.2
18.054000000000002,-1.0
18.056,-1.6
18.058,-0.2
18.06,-1.4
18.062,-2.0
18.064,-4.4
18.066,-3.4
18.068,-6.6
18.07,-1.0
18.072,8.2
18.074,15.6
18.076,13.0
18.078,2.4
18.080000000000002,0.6
18.082,0.4
18.084,-2.2
18.086000000000002,-1.6
18.088,-2.0
18.09,0.2
18.092,-2.2
18.094,-0.8
18.096,2.2
18.098,-0.2
18.1,-2.4
18.102,-5.4
18.104,-1.6
18.106,3.6
18.108,2.8
18.11,0.0
18.112000000000002,-0.8
18.114,-1.8
18.116,-3.2
18.118000000000002,-4.0
18.12,-2.0
18.122,-1.2
18.124,-4.4
18.126,-6.0
18.128,-5.8
18.13,-5.4
18.132,-4.6
18.134,-4.8
18.136,-2.8
18.138,-1.6
18.14,1.4
18.142,-3.0
18.144000000000002,-2.2
18.146,-4.2
18.148,-1.2
18.150000000000002,-7.4
18.152,-8.0
18.154,-6.8
18.156,-9.0
18.158,-10.8
18.16,-7.6
18.162,-7.4
18.164,-5.2
18.166,-5.4
18.168,-5.8
18.17,-0.6
18.172,-2.6
18.174,-3.0
18.176000000000002,-2.4
18.178,-3.0
18.18,-6.0
18.182,-6.2
18.184,-0.6
18.186,1.6
18.188,8.0
18.19,8.6
18.192,11.0
18.194,20.8
18.196,27.6
18.198,26.0
18.2,26.2
18.202,28.4
18.204,31.0
18.206,26.0
18.208000000000002,22.8
18.21,22.6
18.212,17.6
18.214,9.4
18.216,5.0
18.218,-2.0
18.22,-6.8
18.222,-7.2
18.224,-7.4
18.226,-1.0
18.228,-2.6
18.23,-1.0
18.232,1.8
18.234,0.4
18.236,-4.2
18.238,-2.8
18.240000000000002,-4.4
18.242,-6.2
18.244,-3.6
18.246,-6.6
18.248,-6.2
18.25,-8.2
18.252,-7.8
18.254,-6.6
18.256,-2.8
18.258,-2.2
18.26,-0.4
18.262,-1.0
18.264,-2.2
18.266000000000002,-4.0
18.268,-6.6
18.27,-8.4
18.272000000000002,-6.0
18.274,-5.6
18.276,-5.0
18.278,-3.6
18.28,-4.2
18.282,-1.8
18.284,-0.2
18.286,-3.6
18.288,-7.4
18.29,-5.0
18.292,-5.8
18.294,-6.2
18.296,-3.0
18.298000000000002,-1.4
18.3,-6.6
18.302,-6.4
18.304000000000002,-5.6
18.306,-1.8
18.308,-0.2
18.31,-2.4
18.312,-3.0
18.314,-3.2
18.316,-3.8
18.318,-3.8
18.32,2.2
18.322,6.8
18.324,2.2
18.326,1.2
18.328,2.2
18.330000000000002,2.0
18.332,-3.4
18.334,-4.8
18.336000000000002,-3.4
18.338,-0.6
18.34,-1.0
18.342,-1.8
18.344,0.6
18.346,-2.2
18.348,-1.2
18.35,0.4
18.352,3.8
18.354,2.8
18.356,-0.4
18.358,-2.0
18.36,0.6
18.362000000000002,6.4
18.364,5.2
18.366,-0.4
18.368000000000002,-0.2
18.37,1.0
18.372,2.8
18.374,4.4
18.376,6.0
18.378,7.4
18.38,7.4
18.382,8.0
18.384,8.6
18.386,7.2
18.388,6.0
18.39,9.4
18.392,9.2
18.394000000000002,5.0
18.396,17.8
18.398,19.0
18.400000000000002,14.0
18.402,12.8
18.404,12.8
18.406,8.8
18.408,7.0
18.41,9.4
18.412,12.0
18.414,16.4
18.416,19.0
18.418,20.4
18.42,19.8
18.422,18.0
18.424,13.2
18.426000000000002,10.8
18.428,7.0
18.43,8.6
18.432000000000002,14.0
18.434,14.2
18.436,14.8
18.438,17.8
18.44,16.4
18.442,13.2
18.444,8.8
18.446,1.0
18.448,1.6
18.45,3.0
18.452,-1.0
18.454,-1.0
18.456,1.0
18.458000000000002,-2.0
18.46,1.4
18.462,8.0
18.464,6.2
18.466,3.4
18.468,2.2
18.47,0.0
18.472,0.6
18.474,1.0
18.476,-1.2
18.478,-6.0
18.48,-6.2
18.482,-5.8
18.484,-10.2
18.486,-8.0
18.488,-6.0
18.490000000000002,-3.0
18.492,3.0
18.494,4.0
18.496,0.6
18.498,-1.4
18.5,-2.6
18.502,-3.0
18.504,-4.6
18.506,-6.4
18.508,-6.2
18.51,-6.2
18.512,-6.4
18.514,-3.4
18.516000000000002,-3.8
18.518,0.2
18.52,2.4
18.522000000000002,-0.6
18.524,2.0
18.526,-2.0
18.528,-3.0
18.53,-1.8
18.532,-0.4
18.534,-3.8
18.536,-9.2
18.538,-11.6
18.54,-10.8
18.542,-9.4
18.544,0.0
18.546,1.2
18.548000000000002,-1.0
18.55,-1.8
18.552,-5.8
18.554000000000002,-2.6
18.556,-2.8
18.558,-4.2
18.56,-5.0
18.562,-0.2
18.564,1.6
18.566,-2.6
18.568,-6.2
18.57,-5.8
18.572,-2.6
18.574,2.8
18.576,-0.4
18.578,0.0
18.580000000000002,0.0
18.582,-0.4
18.584,-0.6
18.586000000000002,-1.4
18.588,-3.2
18.59,-0.6
18.592,-2.2
18.594,-2.0
18.596,-3.2
18.598,-4.8
18.6,-6.8
18.602,-6.0
18.604,-2.2
18.606,-3.8
18.608,-6.2
18.61,-2.6
18.612000000000002,4.6
18.614,-2.2
18.616,-2.2
18.618000000000002,-3.8
18.62,-4.6
18.622,-3.0
18.624,-2.2
18.626,0.2
18.628,-4.2
18.63,-3.8
18.632,-5.6
18.634,-8.8
18.636,-7.0
18.638,-0.2
18.64,3.6
18.642,2.6
18.644000000000002,1.8
18.646,0.8
18.648,0.8
18.650000000000002,-0.6
18.652,-2.4
18.654,-3.8
18.656,-1.6
18.658,3.4
18.66,2.0
18.662,2.8
18.664,-7.0
18.666,-0.6
18.668,-3.0
18.67,-6.0
18.672,-2.4
18.674,-2.4
18.676000000000002,-4.6
18.678,1.0
18.68,1.8
18.682000000000002,1.6
18.684,1.4
18.686,-2.4
18.688,-1.8
18.69,3.4
18.692,3.0
18.694,-0.6
18.696,0.2
18.698,2.0
18.7,2.2
18.702,7.0
18.704,3.2
18.706,-1.0
18.708000000000002,4.8
18.71,5.4
18.712,5.0
18.714,4.2
18.716,0.4
18.718,-3.0
18.72,-4.6
18.722,-4.6
18.724,-5.0
18.726,-5.8
18.728,-4.0
18.73,-2.8
18.732,-0.6
18.734,-3.0
18.736,-1.2
18.738,-2.2
18.740000000000002,-4.6
18.742,-4.4
18.744,-2.6
18.746,-1.4
18.748,1.2
18.75,-3.8
18.752,-3.4
18.754,-1.0
18.756,-2.4
18.758,-3.2
18.76,-6.2
18.762,-7.0
18.764,-2.4
18.766000000000002,-2.4
18.768,-2.0
18.77,-4.2
18.772000000000002,0.2
18.774,-2.8
18.776,-4.0
18.778,-2.8
18.78,-3.0
18.782,-10.2
18.784,-9.4
18.786,-6.8
18.788,-9.8
18.79,-10.4
18.792,-4.2
18.794,-0.4
18.796,2.4
18.798000000000002,3.8
18.8,-0.2
18.802,-0.2
18.804000000000002,5.4
18.806,11.8
18.808,15.8
18.81,22.4
18.812,20.8
18.814,22.6
18.816,23.2
18.818,24.4
18.82,18.6
18.822,15.0
18.824,15.2
18.826,14.0
18.828,11.4
18.830000000000002,5.8
18.832,1.6
18.834,-0.8
18.836000000000002,2.4
18.838,0.6
18.84,-2.2
18.842,-7.6
18.844,-4.6
18.846,-3.6
18.848,-6.6
18.85,-6.4
18.852,-5.2
18.854,-2.6
18.856,-2.2
18.858,-4.4
18.86,-2.6
18.862000000000002,-0.6
18.864,-3.0
18.866,-2.6
18.868000000000002,-4.0
18.87,-3.8
18.872,-7.0
18.874,-4.8
18.876,-5.4
18.878,-4.8
18.88,-4.6
18.882,-8.8
18.884,-10.6
18.886,-4.6
18.888,1.6
18.89,-1.6
18.892,-1.2
18.894000000000002,-2.4
