Time,FHR
0.0,1.0
0.002,5.0
0.004,4.666666666666667
0.006,9.666666666666666
0.008,6.333333333333333
0.01,7.333333333333333
0.012,5.666666666666667
0.014,1.3333333333333333
0.016,-2.3333333333333335
0.018000000000000002,-0.3333333333333333
0.02,0.3333333333333333
0.022,0.6666666666666666
0.024,-2.0
0.026000000000000002,5.666666666666667
0.028,7.333333333333333
0.03,6.0
0.032,0.6666666666666666
0.034,3.3333333333333335
0.036000000000000004,1.0
0.038,5.0
0.04,10.333333333333334
0.042,6.333333333333333
0.044,4.666666666666667
0.046,4.333333333333333
0.048,7.0
0.05,2.3333333333333335
0.052000000000000005,1.6666666666666667
0.054,-2.6666666666666665
0.056,1.0
0.058,4.666666666666667
0.06,7.0
0.062,8.0
0.064,3.0
0.066,1.0
0.068,5.0
0.07,3.6666666666666665
0.07200000000000001,7.333333333333333
0.074,3.0
0.076,-4.0
0.078,-7.0
0.08,4.0
0.082,3.6666666666666665
0.084,6.333333333333333
0.08600000000000001,12.333333333333334
0.088,7.666666666666667
0.09,2.3333333333333335
0.092,2.6666666666666665
0.094,5.0
0.096,-2.3333333333333335
0.098,-0.6666666666666666
0.1,-2.0
0.10200000000000001,3.0
0.10400000000000001,-0.6666666666666666
0.106,-3.0
0.108,2.3333333333333335
0.11,1.3333333333333333
0.112,-2.0
0.114,3.6666666666666665
0.116,9.0
0.11800000000000001,3.0
0.12,4.333333333333333
0.122,3.3333333333333335
0.124,3.6666666666666665
0.126,9.0
0.128,3.0
0.13,5.333333333333333
0.132,6.666666666666667
0.134,7.0
0.136,6.0
0.138,2.0
0.14,0.3333333333333333
0.14200000000000002,-7.666666666666667
0.14400000000000002,-3.3333333333333335
0.146,4.666666666666667
0.148,2.6666666666666665
0.15,0.3333333333333333
0.152,3.3333333333333335
0.154,12.333333333333334
0.156,7.333333333333333
0.158,5.333333333333333
0.16,5.333333333333333
0.162,9.0
0.164,9.0
0.166,6.666666666666667
0.168,4.333333333333333
0.17,3.3333333333333335
0.17200000000000001,8.0
0.17400000000000002,8.333333333333334
0.176,9.0
0.178,6.333333333333333
0.18,7.333333333333333
0.182,2.6666666666666665
0.184,1.6666666666666667
0.186,4.333333333333333
0.188,6.0
0.19,2.6666666666666665
0.192,4.333333333333333
0.194,0.3333333333333333
0.196,-9.666666666666666
0.198,9.333333333333334
0.2,5.0
0.202,1.0
0.20400000000000001,3.6666666666666665
0.20600000000000002,3.0
0.20800000000000002,3.3333333333333335
0.21,6.0
0.212,2.6666666666666665
0.214,0.0
0.216,-1.3333333333333333
0.218,-0.6666666666666666
0.22,-4.333333333333333
0.222,-1.6666666666666667
0.224,-1.0
0.226,7.666666666666667
0.228,6.333333333333333
0.23,7.666666666666667
0.232,1.0
0.234,-1.6666666666666667
0.23600000000000002,6.0
0.23800000000000002,5.333333333333333
0.24,0.3333333333333333
0.242,0.6666666666666666
0.244,3.6666666666666665
0.246,3.0
0.248,0.6666666666666666
0.25,-5.333333333333333
0.252,-6.333333333333333
0.254,-4.333333333333333
0.256,-9.0
0.258,-10.333333333333334
0.26,1.3333333333333333
0.262,-0.3333333333333333
0.264,-4.666666666666667
0.266,2.0
0.268,7.333333333333333
0.27,8.666666666666666
0.272,16.0
0.274,25.333333333333332
0.276,34.666666666666664
0.278,43.333333333333336
0.28,47.666666666666664
0.28200000000000003,63.0
0.28400000000000003,75.33333333333333
0.28600000000000003,75.33333333333333
0.28800000000000003,77.0
0.29,78.33333333333333
0.292,74.0
0.294,73.0
0.296,65.0
0.298,49.0
0.3,36.0
0.302,18.666666666666668
0.304,5.333333333333333
0.306,3.0
0.308,2.0
0.31,4.0
0.312,2.3333333333333335
0.314,-0.3333333333333333
0.316,-3.6666666666666665
0.318,-5.0
0.32,-2.3333333333333335
0.322,-1.0
0.324,6.333333333333333
0.326,0.3333333333333333
0.328,4.0
0.33,4.666666666666667
0.332,3.3333333333333335
0.334,-1.0
0.336,1.3333333333333333
0.338,4.0
0.34,9.0
0.342,6.333333333333333
0.34400000000000003,2.6666666666666665
0.34600000000000003,0.6666666666666666
0.34800000000000003,5.0
0.35000000000000003,0.0
0.352,6.333333333333333
0.354,3.6666666666666665
0.356,0.0
0.358,-5.666666666666667
0.36,-7.0
0.362,1.0
0.364,1.0
0.366,5.666666666666667
0.368,2.6666666666666665
0.37,4.333333333333333
0.372,-1.6666666666666667
0.374,6.333333333333333
0.376,6.0
0.378,8.333333333333334
0.38,6.0
0.382,10.333333333333334
0.384,5.333333333333333
0.386,7.0
0.388,9.0
0.39,8.0
0.392,4.0
0.394,-4.666666666666667
0.396,3.0
0.398,0.6666666666666666
0.4,6.333333333333333
0.402,8.333333333333334
0.404,7.0
0.406,6.0
0.40800000000000003,-4.0
0.41000000000000003,5.333333333333333
0.41200000000000003,5.0
0.41400000000000003,8.0
0.41600000000000004,8.333333333333334
0.418,12.666666666666666
0.42,9.333333333333334
0.422,5.666666666666667
0.424,6.333333333333333
0.426,10.0
0.428,6.333333333333333
0.43,-1.3333333333333333
0.432,9.666666666666666
0.434,2.3333333333333335
0.436,9.0
0.438,8.333333333333334
0.44,13.0
0.442,18.333333333333332
0.444,9.333333333333334
0.446,17.333333333333332
0.448,26.0
0.45,17.666666666666668
0.452,12.0
0.454,13.333333333333334
0.456,15.666666666666666
0.458,18.333333333333332
0.46,19.333333333333332
0.462,19.666666666666668
0.464,18.0
0.466,13.333333333333334
0.468,20.666666666666668
0.47000000000000003,19.666666666666668
0.47200000000000003,24.333333333333332
0.47400000000000003,24.333333333333332
0.47600000000000003,20.666666666666668
0.47800000000000004,20.666666666666668
0.48,23.0
0.482,25.0
0.484,27.333333333333332
0.486,25.0
0.488,23.333333333333332
0.49,24.666666666666668
0.492,21.666666666666668
0.494,16.333333333333332
0.496,19.333333333333332
0.498,18.666666666666668
0.5,26.666666666666668
0.502,30.333333333333332
0.504,31.333333333333332
0.506,21.666666666666668
0.508,15.666666666666666
0.51,19.666666666666668
0.512,27.333333333333332
0.514,22.333333333333332
0.516,22.666666666666668
0.518,19.333333333333332
0.52,14.0
0.522,18.666666666666668
0.524,15.333333333333334
0.526,16.0
0.528,18.0
0.53,19.333333333333332
0.532,14.0
0.534,13.666666666666666
0.536,10.666666666666666
0.538,7.666666666666667
0.54,4.333333333333333
0.542,3.3333333333333335
0.544,12.333333333333334
0.546,6.333333333333333
0.548,3.3333333333333335
0.55,9.666666666666666
0.552,11.0
0.554,5.0
0.556,6.333333333333333
0.558,13.666666666666666
0.56,11.0
0.562,8.0
0.5640000000000001,7.0
0.5660000000000001,5.333333333333333
0.5680000000000001,4.0
0.5700000000000001,9.333333333333334
0.5720000000000001,2.0
0.5740000000000001,1.0
0.5760000000000001,4.333333333333333
0.578,3.6666666666666665
0.58,-0.3333333333333333
0.582,-0.3333333333333333
0.584,1.3333333333333333
0.586,1.3333333333333333
0.588,-1.3333333333333333
0.59,1.0
0.592,3.6666666666666665
0.594,-4.333333333333333
0.596,-0.3333333333333333
0.598,3.6666666666666665
0.6,0.0
0.602,-5.333333333333333
0.604,-3.3333333333333335
0.606,4.0
0.608,5.0
0.61,-2.0
0.612,1.6666666666666667
0.614,1.3333333333333333
0.616,0.6666666666666666
0.618,1.6666666666666667
0.62,-0.3333333333333333
0.622,-2.6666666666666665
0.624,2.0
0.626,3.0
0.628,-2.3333333333333335
0.63,-1.3333333333333333
0.632,-8.333333333333334
0.634,-1.6666666666666667
0.636,3.0
0.638,-5.0
0.64,-1.0
0.642,13.333333333333334
0.644,5.0
0.646,-1.3333333333333333
0.648,-3.6666666666666665
0.65,0.6666666666666666
0.652,-2.0
0.654,0.0
0.656,2.6666666666666665
0.658,2.6666666666666665
0.66,2.6666666666666665
0.662,-0.6666666666666666
0.664,4.0
0.666,0.6666666666666666
0.668,-0.6666666666666666
0.67,2.3333333333333335
0.672,3.3333333333333335
0.674,6.666666666666667
0.676,5.0
0.678,3.0
0.68,0.6666666666666666
0.682,0.0
0.684,1.6666666666666667
0.686,-3.0
0.6880000000000001,0.6666666666666666
0.6900000000000001,1.0
0.6920000000000001,2.3333333333333335
0.6940000000000001,-1.6666666666666667
0.6960000000000001,4.333333333333333
0.6980000000000001,4.333333333333333
0.7000000000000001,3.3333333333333335
0.7020000000000001,4.666666666666667
0.704,-0.3333333333333333
0.706,2.3333333333333335
0.708,0.6666666666666666
0.71,1.3333333333333333
0.712,2.0
0.714,-1.0
0.716,2.3333333333333335
0.718,-3.0
0.72,1.6666666666666667
0.722,2.6666666666666665
0.724,1.3333333333333333
0.726,0.0
0.728,-1.3333333333333333
0.73,-0.3333333333333333
0.732,-5.666666666666667
0.734,-3.3333333333333335
0.736,2.0
0.738,-0.6666666666666666
0.74,-4.333333333333333
0.742,-0.3333333333333333
0.744,1.3333333333333333
0.746,0.0
0.748,-4.666666666666667
0.75,0.0
0.752,-2.6666666666666665
0.754,0.6666666666666666
0.756,6.333333333333333
0.758,-3.0
0.76,-6.0
0.762,-1.0
0.764,0.0
0.766,2.6666666666666665
0.768,-3.3333333333333335
0.77,-3.6666666666666665
0.772,0.3333333333333333
0.774,-1.3333333333333333
0.776,-3.3333333333333335
0.778,-8.666666666666666
0.78,-4.0
0.782,-2.0
0.784,-6.666666666666667
0.786,-1.3333333333333333
0.788,0.6666666666666666
0.79,3.3333333333333335
0.792,2.3333333333333335
0.794,1.6666666666666667
0.796,-4.666666666666667
0.798,6.0
0.8,1.3333333333333333
0.802,0.0
0.804,1.0
0.806,-0.3333333333333333
0.808,2.0
0.81,0.0
0.812,3.6666666666666665
0.8140000000000001,1.3333333333333333
0.8160000000000001,1.3333333333333333
0.8180000000000001,0.3333333333333333
0.8200000000000001,5.666666666666667
0.8220000000000001,5.0
0.8240000000000001,1.3333333333333333
0.8260000000000001,3.6666666666666665
0.8280000000000001,1.3333333333333333
0.8300000000000001,3.3333333333333335
0.8320000000000001,-0.3333333333333333
0.834,5.666666666666667
0.836,6.333333333333333
0.838,8.0
0.84,7.333333333333333
0.842,1.0
0.844,-3.6666666666666665
0.846,0.6666666666666666
0.848,0.3333333333333333
0.85,-7.333333333333333
0.852,-7.666666666666667
0.854,2.6666666666666665
0.856,-2.3333333333333335
0.858,-2.3333333333333335
0.86,-3.0
0.862,2.6666666666666665
0.864,5.666666666666667
0.866,4.666666666666667
0.868,-4.333333333333333
0.87,-3.0
0.872,-4.333333333333333
0.874,-2.0
0.876,-2.3333333333333335
0.878,-1.3333333333333333
0.88,3.3333333333333335
0.882,6.333333333333333
0.884,-10.333333333333334
0.886,-4.333333333333333
0.888,0.6666666666666666
0.89,-0.3333333333333333
0.892,1.3333333333333333
0.894,-1.6666666666666667
0.896,-1.3333333333333333
0.898,-2.6666666666666665
0.9,-4.0
0.902,-6.0
0.904,-7.666666666666667
0.906,-2.3333333333333335
0.908,-0.6666666666666666
0.91,4.0
0.912,3.0
0.914,-3.0
0.916,-1.6666666666666667
0.918,0.0
0.92,-2.6666666666666665
0.922,-6.0
0.924,-2.6666666666666665
0.926,-11.0
0.928,-5.333333333333333
0.93,1.6666666666666667
0.932,1.0
0.934,9.666666666666666
0.936,22.0
0.9380000000000001,29.666666666666668
0.9400000000000001,33.333333333333336
0.9420000000000001,48.666666666666664
0.9440000000000001,59.0
0.9460000000000001,74.0
0.9480000000000001,79.33333333333333
0.9500000000000001,77.0
0.9520000000000001,71.33333333333333
0.9540000000000001,68.33333333333333
0.9560000000000001,71.33333333333333
0.9580000000000001,65.66666666666667
0.96,54.333333333333336
0.962,34.666666666666664
0.964,23.333333333333332
0.966,11.333333333333334
0.968,0.0
0.97,-5.666666666666667
0.972,-7.333333333333333
0.974,-3.0
0.976,-5.666666666666667
0.978,-5.0
0.98,6.333333333333333
0.982,-1.6666666666666667
0.984,1.3333333333333333
0.986,2.0
0.988,0.6666666666666666
0.99,0.6666666666666666
0.992,2.6666666666666665
0.994,4.666666666666667
0.996,1.0
0.998,2.0
1.0,-5.333333333333333
1.002,-3.0
1.004,-1.3333333333333333
1.006,-1.3333333333333333
1.008,-4.666666666666667
1.01,-7.666666666666667
1.012,2.3333333333333335
1.014,-2.0
1.016,-4.0
1.018,0.0
1.02,0.6666666666666666
1.022,2.3333333333333335
1.024,5.666666666666667
1.026,2.6666666666666665
1.028,-7.333333333333333
1.03,-7.666666666666667
1.032,-0.3333333333333333
1.034,2.6666666666666665
1.036,3.3333333333333335
1.038,3.0
1.04,3.3333333333333335
1.042,-2.0
1.044,1.3333333333333333
1.046,-1.6666666666666667
1.048,1.3333333333333333
1.05,3.6666666666666665
1.052,4.666666666666667
1.054,5.666666666666667
1.056,3.6666666666666665
1.058,5.0
1.06,0.6666666666666666
1.062,5.333333333333333
1.064,-0.6666666666666666
1.066,3.0
1.068,1.0
1.07,4.666666666666667
1.072,4.666666666666667
1.074,5.0
1.076,2.3333333333333335
1.078,1.3333333333333333
1.08,5.666666666666667
1.082,5.0
1.084,8.0
1.086,5.0
1.088,4.0
1.09,6.666666666666667
1.092,6.666666666666667
1.094,8.0
1.096,14.666666666666666
1.098,9.0
1.1,4.0
1.102,4.0
1.104,3.0
1.106,6.333333333333333
1.108,4.0
1.11,6.666666666666667
1.112,10.0
1.114,14.666666666666666
1.116,16.0
1.118,12.666666666666666
1.12,17.333333333333332
1.122,20.666666666666668
1.124,18.666666666666668
1.1260000000000001,17.666666666666668
1.1280000000000001,18.666666666666668
1.1300000000000001,21.333333333333332
1.1320000000000001,19.333333333333332
1.1340000000000001,11.666666666666666
1.1360000000000001,18.666666666666668
1.1380000000000001,15.0
1.1400000000000001,6.333333333333333
1.1420000000000001,18.333333333333332
1.1440000000000001,18.0
1.1460000000000001,18.666666666666668
1.1480000000000001,17.0
1.1500000000000001,14.0
1.1520000000000001,18.333333333333332
1.154,21.666666666666668
1.156,22.333333333333332
1.158,21.0
1.16,22.0
1.162,19.666666666666668
1.164,23.666666666666668
1.166,31.0
1.168,22.333333333333332
1.17,15.333333333333334
1.172,19.0
1.174,20.666666666666668
1.176,21.666666666666668
1.178,24.333333333333332
1.18,19.333333333333332
1.182,16.333333333333332
1.184,17.666666666666668
1.186,17.0
1.188,16.333333333333332
1.19,12.333333333333334
1.192,12.333333333333334
1.194,12.333333333333334
1.196,12.0
1.198,10.0
1.2,6.333333333333333
1.202,12.333333333333334
1.204,11.333333333333334
1.206,4.666666666666667
1.208,8.333333333333334
1.21,15.666666666666666
1.212,10.666666666666666
1.214,6.666666666666667
1.216,7.666666666666667
1.218,6.0
1.22,8.333333333333334
1.222,7.333333333333333
1.224,1.3333333333333333
1.226,0.0
1.228,-4.333333333333333
1.23,-0.6666666666666666
1.232,1.3333333333333333
1.234,3.0
1.236,-0.3333333333333333
1.238,1.6666666666666667
1.24,-1.0
1.242,-6.666666666666667
1.244,-1.0
1.246,1.3333333333333333
1.248,-4.666666666666667
1.25,0.6666666666666666
1.252,0.0
1.254,2.3333333333333335
1.256,0.6666666666666666
1.258,-7.0
1.26,-6.333333333333333
1.262,0.6666666666666666
1.264,0.0
1.266,4.666666666666667
1.268,3.3333333333333335
1.27,2.0
1.272,-3.3333333333333335
1.274,0.3333333333333333
1.276,1.3333333333333333
1.278,-4.666666666666667
1.28,-2.3333333333333335
1.282,0.6666666666666666
1.284,-0.3333333333333333
1.286,1.6666666666666667
1.288,4.0
1.29,-2.3333333333333335
1.292,-1.6666666666666667
1.294,2.3333333333333335
1.296,3.3333333333333335
1.298,2.6666666666666665
1.3,-4.0
1.302,-5.666666666666667
1.304,1.3333333333333333
1.306,0.0
1.308,-1.3333333333333333
1.31,0.0
1.312,-6.333333333333333
1.314,-2.3333333333333335
1.316,6.0
1.318,8.0
1.32,4.333333333333333
1.322,4.666666666666667
1.324,-2.0
1.326,-6.0
1.328,-3.0
1.33,0.3333333333333333
1.332,-3.6666666666666665
1.334,-3.3333333333333335
1.336,-0.3333333333333333
1.338,-1.6666666666666667
1.34,-3.3333333333333335
1.342,1.3333333333333333
1.344,3.0
1.346,11.666666666666666
1.348,6.666666666666667
1.35,6.0
1.352,3.3333333333333335
1.354,-1.0
1.356,8.333333333333334
1.358,6.666666666666667
1.36,-0.6666666666666666
1.362,-6.333333333333333
1.364,3.3333333333333335
1.366,4.0
1.368,2.3333333333333335
1.37,0.3333333333333333
1.372,-1.6666666666666667
1.374,-3.6666666666666665
1.3760000000000001,-5.0
1.3780000000000001,-2.0
1.3800000000000001,-3.6666666666666665
1.3820000000000001,1.6666666666666667
1.3840000000000001,3.3333333333333335
1.3860000000000001,3.3333333333333335
1.3880000000000001,-3.0
1.3900000000000001,-12.0
1.3920000000000001,-1.0
1.3940000000000001,8.666666666666666
1.3960000000000001,1.0
1.3980000000000001,7.666666666666667
1.4000000000000001,6.333333333333333
1.4020000000000001,4.333333333333333
1.4040000000000001,3.0
1.4060000000000001,0.6666666666666666
1.408,-0.6666666666666666
1.41,-2.6666666666666665
1.412,1.6666666666666667
1.414,-1.0
1.416,-6.666666666666667
1.418,4.666666666666667
1.42,3.0
1.422,2.6666666666666665
1.424,2.3333333333333335
1.426,-3.6666666666666665
1.428,-5.666666666666667
1.43,0.3333333333333333
1.432,5.0
1.434,2.6666666666666665
1.436,-1.6666666666666667
1.438,-3.6666666666666665
1.44,1.0
1.442,1.0
1.444,-5.0
1.446,0.6666666666666666
1.448,3.0
1.45,-0.3333333333333333
1.452,4.333333333333333
1.454,3.0
1.456,-4.333333333333333
1.458,-5.0
1.46,-2.0
1.462,-0.6666666666666666
1.464,0.0
1.466,0.6666666666666666
1.468,1.3333333333333333
1.47,-12.666666666666666
1.472,-1.6666666666666667
1.474,7.333333333333333
1.476,5.666666666666667
1.478,-4.333333333333333
1.48,3.0
1.482,7.0
1.484,5.333333333333333
1.486,-6.0
1.488,-2.6666666666666665
1.49,5.333333333333333
1.492,1.6666666666666667
1.494,-4.666666666666667
1.496,-6.666666666666667
1.498,0.3333333333333333
1.5,-1.0
1.502,1.6666666666666667
1.504,4.666666666666667
1.506,5.333333333333333
1.508,3.3333333333333335
1.51,3.3333333333333335
1.512,-0.3333333333333333
1.514,1.6666666666666667
1.516,-7.0
1.518,-4.333333333333333
1.52,-1.6666666666666667
1.522,-0.3333333333333333
1.524,-8.0
1.526,-2.0
1.528,3.0
1.53,5.0
1.532,4.666666666666667
1.534,-1.3333333333333333
1.536,-3.6666666666666665
1.538,6.0
1.54,5.666666666666667
1.542,11.0
1.544,11.0
1.546,6.0
1.548,4.0
1.55,4.333333333333333
1.552,1.3333333333333333
1.554,4.333333333333333
1.556,-2.0
1.558,-1.0
1.56,0.0
1.562,3.6666666666666665
1.564,-0.3333333333333333
1.566,0.0
1.568,-2.3333333333333335
1.57,-6.0
1.572,-7.666666666666667
1.574,1.3333333333333333
1.576,-2.0
1.578,2.3333333333333335
1.58,-2.0
1.582,-3.6666666666666665
1.584,0.6666666666666666
1.586,-1.6666666666666667
1.588,-0.3333333333333333
1.59,1.6666666666666667
1.592,1.3333333333333333
1.594,-4.666666666666667
1.596,-1.6666666666666667
1.598,0.3333333333333333
1.6,-4.333333333333333
1.602,4.333333333333333
1.604,2.3333333333333335
1.606,-0.6666666666666666
1.608,-5.666666666666667
1.61,-1.0
1.612,3.6666666666666665
1.614,1.3333333333333333
1.616,0.0
1.618,-3.3333333333333335
1.62,-6.666666666666667
1.622,-6.666666666666667
1.624,-0.6666666666666666
1.6260000000000001,-1.3333333333333333
1.6280000000000001,-4.0
1.6300000000000001,-6.666666666666667
1.6320000000000001,-2.6666666666666665
1.6340000000000001,3.3333333333333335
1.6360000000000001,-2.0
1.6380000000000001,6.0
1.6400000000000001,23.333333333333332
1.6420000000000001,34.333333333333336
1.6440000000000001,38.333333333333336
1.6460000000000001,36.333333333333336
1.6480000000000001,48.0
1.6500000000000001,67.33333333333333
1.6520000000000001,76.33333333333333
1.6540000000000001,76.33333333333333
1.6560000000000001,70.0
1.6580000000000001,75.0
1.6600000000000001,83.66666666666667
1.6620000000000001,64.66666666666667
1.6640000000000001,45.0
1.666,47.0
1.668,42.0
1.67,24.666666666666668
1.672,7.666666666666667
1.674,0.0
1.676,-4.0
1.678,-0.3333333333333333
1.68,-1.6666666666666667
1.682,-3.6666666666666665
1.684,-2.0
1.686,-2.0
1.688,-2.6666666666666665
1.69,5.333333333333333
1.692,-1.3333333333333333
1.694,-0.6666666666666666
1.696,-1.0
1.698,0.0
1.7,5.333333333333333
1.702,2.6666666666666665
1.704,1.3333333333333333
1.706,-7.333333333333333
1.708,-3.0
1.71,5.666666666666667
1.712,-2.3333333333333335
1.714,-6.333333333333333
1.716,2.6666666666666665
1.718,2.3333333333333335
1.72,-2.3333333333333335
1.722,4.666666666666667
1.724,2.0
1.726,0.0
1.728,2.0
1.73,3.6666666666666665
1.732,0.0
1.734,3.0
1.736,3.6666666666666665
1.738,7.0
1.74,0.6666666666666666
1.742,-0.6666666666666666
1.744,2.3333333333333335
1.746,-2.0
1.748,0.0
1.75,0.6666666666666666
1.752,4.333333333333333
1.754,2.3333333333333335
1.756,6.0
1.758,7.333333333333333
1.76,5.0
1.762,-2.6666666666666665
1.764,2.6666666666666665
1.766,9.333333333333334
1.768,8.666666666666666
1.77,-1.6666666666666667
1.772,-1.0
1.774,0.3333333333333333
1.776,3.0
1.778,5.333333333333333
1.78,6.333333333333333
1.782,0.6666666666666666
1.784,3.0
1.786,8.0
1.788,6.666666666666667
1.79,8.0
1.792,7.666666666666667
1.794,10.0
1.796,10.333333333333334
1.798,10.0
1.8,9.666666666666666
1.802,7.333333333333333
1.804,7.333333333333333
1.806,7.0
1.808,3.3333333333333335
1.81,8.333333333333334
1.812,16.0
1.814,11.333333333333334
1.816,12.333333333333334
1.818,17.0
1.82,7.333333333333333
1.822,9.333333333333334
1.824,9.666666666666666
1.826,8.666666666666666
1.828,8.0
1.83,11.0
1.832,18.666666666666668
1.834,24.666666666666668
1.836,20.333333333333332
1.838,19.333333333333332
1.84,17.666666666666668
1.842,16.0
1.844,17.0
1.846,17.666666666666668
1.848,16.333333333333332
1.85,18.333333333333332
1.852,18.666666666666668
1.854,20.0
1.856,24.0
1.858,15.333333333333334
1.86,23.0
1.862,35.0
1.864,34.0
1.866,22.0
1.868,19.0
1.87,18.0
1.872,22.333333333333332
1.874,18.0
1.8760000000000001,20.333333333333332
1.8780000000000001,19.333333333333332
1.8800000000000001,20.333333333333332
1.8820000000000001,18.333333333333332
1.8840000000000001,17.0
1.8860000000000001,18.666666666666668
1.8880000000000001,14.666666666666666
1.8900000000000001,18.333333333333332
1.8920000000000001,24.666666666666668
1.8940000000000001,22.333333333333332
1.8960000000000001,18.0
1.8980000000000001,15.333333333333334
1.9000000000000001,15.333333333333334
1.9020000000000001,15.666666666666666
1.9040000000000001,10.333333333333334
1.9060000000000001,8.0
1.9080000000000001,10.333333333333334
1.9100000000000001,9.666666666666666
1.9120000000000001,16.333333333333332
1.9140000000000001,8.0
1.9160000000000001,9.666666666666666
1.9180000000000001,8.666666666666666
1.92,4.333333333333333
1.922,6.333333333333333
1.924,4.333333333333333
1.926,8.666666666666666
1.928,8.333333333333334
1.93,7.333333333333333
1.932,3.6666666666666665
1.934,3.6666666666666665
1.936,2.6666666666666665
1.938,-1.0
1.94,1.0
1.942,2.3333333333333335
1.944,-1.0
1.946,1.3333333333333333
1.948,1.6666666666666667
1.95,-1.6666666666666667
1.952,-2.6666666666666665
1.954,-2.3333333333333335
1.956,3.0
1.958,-1.3333333333333333
1.96,4.0
1.962,9.0
1.964,3.6666666666666665
1.966,-1.0
1.968,0.0
1.97,-1.0
1.972,-4.333333333333333
1.974,-6.666666666666667
1.976,1.3333333333333333
1.978,1.0
1.98,1.3333333333333333
1.982,-1.3333333333333333
1.984,1.6666666666666667
1.986,2.6666666666666665
1.988,2.0
1.99,1.0
1.992,2.0
1.994,2.0
1.996,3.0
1.998,3.3333333333333335
2.0,1.0
2.0020000000000002,-1.6666666666666667
2.004,-2.6666666666666665
2.0060000000000002,-7.0
2.008,-1.6666666666666667
2.0100000000000002,-0.6666666666666666
2.012,-7.333333333333333
2.0140000000000002,2.3333333333333335
2.016,3.0
2.0180000000000002,8.666666666666666
2.02,8.666666666666666
2.0220000000000002,2.6666666666666665
2.024,-1.3333333333333333
2.0260000000000002,-4.333333333333333
2.028,3.3333333333333335
2.0300000000000002,7.0
2.032,5.333333333333333
2.0340000000000003,6.666666666666667
2.036,0.3333333333333333
2.0380000000000003,-1.3333333333333333
2.04,2.6666666666666665
2.0420000000000003,2.3333333333333335
2.044,6.0
2.0460000000000003,4.0
2.048,5.333333333333333
2.05,3.3333333333333335
2.052,1.6666666666666667
2.054,2.6666666666666665
2.056,-1.6666666666666667
2.058,-5.0
2.06,-0.6666666666666666
2.062,1.6666666666666667
2.064,4.333333333333333
2.066,1.3333333333333333
2.068,2.0
2.07,6.666666666666667
2.072,7.0
2.074,3.3333333333333335
2.076,-1.3333333333333333
2.078,-0.6666666666666666
2.08,3.3333333333333335
2.082,8.333333333333334
2.084,3.0
2.086,2.6666666666666665
2.088,5.333333333333333
2.09,1.6666666666666667
2.092,-2.6666666666666665
2.094,-4.333333333333333
2.096,1.6666666666666667
2.098,0.3333333333333333
2.1,0.0
2.102,3.3333333333333335
2.104,2.0
2.106,-1.0
2.108,-0.3333333333333333
2.11,6.333333333333333
2.112,7.666666666666667
2.114,2.0
2.116,2.0
2.118,-0.6666666666666666
2.12,-2.3333333333333335
2.122,-2.0
2.124,-4.666666666666667
2.126,-3.6666666666666665
2.128,0.6666666666666666
2.13,-1.0
2.132,2.0
2.134,-0.6666666666666666
2.136,-2.6666666666666665
2.138,2.0
2.14,1.0
2.142,-1.6666666666666667
2.144,-2.3333333333333335
2.146,-2.3333333333333335
2.148,-7.0
2.15,-3.6666666666666665
2.152,1.3333333333333333
2.154,-1.0
2.156,-0.3333333333333333
2.158,-10.666666666666666
2.16,-7.666666666666667
2.162,-1.3333333333333333
2.164,-2.6666666666666665
2.166,-12.0
2.168,-4.666666666666667
2.17,0.3333333333333333
2.172,1.3333333333333333
2.174,6.0
2.176,2.3333333333333335
2.178,-4.666666666666667
2.18,-7.666666666666667
2.182,-6.0
2.184,-5.666666666666667
2.186,0.0
2.188,0.3333333333333333
2.19,1.6666666666666667
2.192,5.666666666666667
2.194,1.6666666666666667
2.196,3.3333333333333335
2.198,-4.0
2.2,-4.666666666666667
2.202,4.0
2.204,-3.6666666666666665
2.206,-8.666666666666666
2.208,1.3333333333333333
2.21,-9.333333333333334
2.212,-8.666666666666666
2.214,0.6666666666666666
2.216,0.3333333333333333
2.218,-1.6666666666666667
2.22,6.333333333333333
2.222,5.333333333333333
2.224,-2.6666666666666665
2.226,-0.6666666666666666
2.228,-2.3333333333333335
2.23,2.6666666666666665
2.232,-0.3333333333333333
2.234,1.6666666666666667
2.236,4.333333333333333
2.238,2.6666666666666665
2.24,3.0
2.242,-2.6666666666666665
2.244,-2.6666666666666665
2.246,-2.6666666666666665
2.248,-2.0
2.25,-3.6666666666666665
2.2520000000000002,0.0
2.254,-1.3333333333333333
2.2560000000000002,6.0
2.258,3.0
2.2600000000000002,3.6666666666666665
2.262,-2.0
2.2640000000000002,-2.3333333333333335
2.266,-2.0
2.2680000000000002,-9.666666666666666
2.27,-10.0
2.2720000000000002,-6.333333333333333
2.274,4.0
2.2760000000000002,1.6666666666666667
2.278,-0.6666666666666666
2.2800000000000002,-1.0
2.282,-2.3333333333333335
2.2840000000000003,-4.333333333333333
2.286,-6.0
2.2880000000000003,-5.0
2.29,-8.333333333333334
2.2920000000000003,-12.0
2.294,-8.666666666666666
2.2960000000000003,-3.0
2.298,-1.0
2.3000000000000003,-1.6666666666666667
2.302,-1.6666666666666667
2.3040000000000003,-5.333333333333333
2.306,-7.0
2.308,-2.3333333333333335
2.31,0.6666666666666666
2.312,-5.0
2.314,-6.0
2.316,-4.666666666666667
2.318,-4.666666666666667
2.32,-7.666666666666667
2.322,-2.6666666666666665
2.324,-7.333333333333333
2.326,-8.666666666666666
2.328,-7.0
2.33,-3.0
2.332,-0.3333333333333333
2.334,6.666666666666667
2.336,18.333333333333332
2.338,31.666666666666668
2.34,34.0
2.342,36.666666666666664
2.344,45.0
2.346,54.333333333333336
2.348,64.0
2.35,71.0
2.352,71.66666666666667
2.354,70.33333333333333
2.356,76.66666666666667
2.358,80.33333333333333
2.36,69.0
2.362,50.666666666666664
2.364,40.333333333333336
2.366,13.666666666666666
2.368,-10.333333333333334
2.37,-6.0
2.372,-11.666666666666666
2.374,-12.333333333333334
2.376,-7.666666666666667
2.378,4.333333333333333
2.38,-0.6666666666666666
2.382,0.6666666666666666
2.384,-0.3333333333333333
2.386,2.6666666666666665
2.388,1.0
2.39,-3.6666666666666665
2.392,-6.333333333333333
2.394,-9.0
2.396,-6.0
2.398,-4.0
2.4,-4.666666666666667
2.402,-3.6666666666666665
2.404,-3.0
2.406,-3.0
2.408,-8.333333333333334
2.41,-8.333333333333334
2.412,-0.3333333333333333
2.414,-6.333333333333333
2.416,-6.333333333333333
2.418,-8.333333333333334
2.42,-7.0
2.422,-6.333333333333333
2.424,-4.333333333333333
2.426,-4.0
2.428,-5.333333333333333
2.43,0.3333333333333333
2.432,-4.0
2.434,-1.3333333333333333
2.436,-0.3333333333333333
2.438,6.666666666666667
2.44,-1.6666666666666667
2.442,-10.666666666666666
2.444,-4.666666666666667
2.446,-2.0
2.448,-4.0
2.45,-10.666666666666666
2.452,-5.0
2.454,3.0
2.456,7.333333333333333
2.458,4.0
2.46,-0.6666666666666666
2.462,-5.333333333333333
2.464,-0.6666666666666666
2.466,-3.0
2.468,0.6666666666666666
2.47,-2.6666666666666665
2.472,-3.6666666666666665
2.474,-5.333333333333333
2.476,5.0
2.478,2.6666666666666665
2.48,5.0
2.482,0.0
2.484,-4.666666666666667
2.486,1.0
2.488,2.0
2.49,-1.3333333333333333
2.492,-1.3333333333333333
2.494,1.3333333333333333
2.496,0.3333333333333333
2.498,9.333333333333334
2.5,6.666666666666667
2.5020000000000002,0.6666666666666666
2.504,8.333333333333334
2.5060000000000002,8.666666666666666
2.508,5.333333333333333
2.5100000000000002,3.3333333333333335
2.512,9.666666666666666
2.5140000000000002,7.0
2.516,7.333333333333333
2.5180000000000002,8.333333333333334
2.52,7.666666666666667
2.5220000000000002,7.0
2.524,7.333333333333333
2.5260000000000002,7.0
2.528,7.333333333333333
2.5300000000000002,3.6666666666666665
2.532,11.666666666666666
2.5340000000000003,23.333333333333332
2.536,23.333333333333332
2.5380000000000003,13.333333333333334
2.54,10.0
2.5420000000000003,16.333333333333332
2.544,11.666666666666666
2.5460000000000003,15.333333333333334
2.548,16.0
2.5500000000000003,13.0
2.552,18.0
2.5540000000000003,21.0
2.556,17.666666666666668
2.5580000000000003,23.0
2.56,19.333333333333332
2.562,18.666666666666668
2.564,13.666666666666666
2.566,19.666666666666668
2.568,16.666666666666668
2.57,16.0
2.572,15.333333333333334
2.574,15.0
2.576,16.666666666666668
2.578,16.333333333333332
2.58,9.666666666666666
2.582,21.0
2.584,16.333333333333332
2.586,16.0
2.588,15.666666666666666
2.59,10.666666666666666
2.592,8.333333333333334
2.594,10.333333333333334
2.596,9.333333333333334
2.598,4.333333333333333
2.6,2.6666666666666665
2.602,6.0
2.604,1.0
2.606,-2.0
2.608,-0.6666666666666666
2.61,-7.0
2.612,0.3333333333333333
2.614,5.333333333333333
2.616,3.3333333333333335
2.618,0.6666666666666666
2.62,1.3333333333333333
2.622,3.0
2.624,-4.0
2.626,0.0
2.628,3.0
2.63,-7.666666666666667
2.632,-7.333333333333333
2.634,-12.333333333333334
2.636,-7.333333333333333
2.638,-0.6666666666666666
2.64,-6.666666666666667
2.642,-4.0
2.644,2.6666666666666665
2.646,-4.0
2.648,-7.333333333333333
2.65,-5.333333333333333
2.652,-10.0
2.654,-8.0
2.656,-8.333333333333334
2.658,-8.666666666666666
2.66,-4.666666666666667
2.662,-5.333333333333333
2.664,-9.666666666666666
2.666,-16.0
2.668,-15.666666666666666
2.67,-9.666666666666666
2.672,-12.666666666666666
2.674,-8.333333333333334
2.676,-2.0
2.678,-0.3333333333333333
2.68,0.3333333333333333
2.682,-5.0
2.684,-7.0
2.686,1.6666666666666667
2.688,-1.6666666666666667
2.69,-4.333333333333333
2.692,-6.333333333333333
2.694,-7.0
2.696,-8.666666666666666
2.698,-9.333333333333334
2.7,-6.0
2.702,-8.333333333333334
2.704,-9.333333333333334
2.706,-4.666666666666667
2.708,-11.0
2.71,-1.6666666666666667
2.712,-0.3333333333333333
2.714,-6.666666666666667
2.716,-5.666666666666667
2.718,-3.6666666666666665
2.72,-9.666666666666666
2.722,-14.0
2.724,-11.0
2.726,4.333333333333333
2.728,-9.333333333333334
2.73,-6.666666666666667
2.732,-8.333333333333334
2.734,-0.6666666666666666
2.736,-3.6666666666666665
2.738,-5.0
2.74,-2.6666666666666665
2.742,-2.0
2.744,-3.3333333333333335
2.746,-8.333333333333334
2.748,-9.666666666666666
2.75,-4.666666666666667
2.7520000000000002,-8.0
2.754,-6.666666666666667
2.7560000000000002,-10.333333333333334
2.758,-7.0
2.7600000000000002,1.3333333333333333
2.762,-2.6666666666666665
2.7640000000000002,-5.0
2.766,1.0
2.7680000000000002,1.0
2.77,-4.0
2.7720000000000002,-6.0
2.774,-5.333333333333333
2.7760000000000002,-6.333333333333333
2.778,-1.3333333333333333
2.7800000000000002,-2.0
2.782,-5.333333333333333
2.7840000000000003,-9.0
2.786,-10.666666666666666
2.7880000000000003,-11.666666666666666
2.79,-9.666666666666666
2.7920000000000003,-4.0
2.794,0.0
2.7960000000000003,-8.333333333333334
2.798,-8.666666666666666
2.8000000000000003,-5.0
2.802,-5.666666666666667
2.8040000000000003,-4.333333333333333
2.806,-0.6666666666666666
2.8080000000000003,-0.6666666666666666
2.81,-1.0
2.8120000000000003,-3.6666666666666665
2.814,-8.0
2.816,-9.666666666666666
2.818,-12.0
2.82,-5.333333333333333
2.822,-3.3333333333333335
2.824,-7.333333333333333
2.826,-11.666666666666666
2.828,-8.0
2.83,-13.666666666666666
2.832,-5.333333333333333
2.834,-2.3333333333333335
2.836,-5.0
2.838,-1.0
2.84,-3.3333333333333335
2.842,0.3333333333333333
2.844,-4.0
2.846,-2.3333333333333335
2.848,-10.666666666666666
2.85,-6.333333333333333
2.852,-5.333333333333333
2.854,-6.666666666666667
2.856,-4.333333333333333
2.858,-9.0
2.86,-11.0
2.862,-8.333333333333334
2.864,-3.3333333333333335
2.866,-5.333333333333333
2.868,-6.333333333333333
2.87,-15.333333333333334
2.872,-10.666666666666666
2.874,-3.0
2.876,-1.6666666666666667
2.878,-5.0
2.88,0.6666666666666666
2.882,-7.333333333333333
2.884,-18.0
2.886,-6.0
2.888,-4.0
2.89,-3.6666666666666665
2.892,-2.3333333333333335
2.894,-6.666666666666667
2.896,-8.333333333333334
2.898,-5.333333333333333
2.9,-3.3333333333333335
2.902,-6.666666666666667
2.904,-8.666666666666666
2.906,-11.666666666666666
2.908,-6.0
2.91,-3.3333333333333335
2.912,-1.0
2.914,-7.333333333333333
2.916,-12.0
2.918,-5.0
2.92,-4.0
2.922,-6.666666666666667
2.924,-8.666666666666666
2.926,-4.666666666666667
2.928,-7.0
2.93,-10.666666666666666
2.932,-7.333333333333333
2.934,-5.0
2.936,-10.0
2.938,-6.0
2.94,-7.666666666666667
2.942,-4.333333333333333
2.944,-6.0
2.946,-4.333333333333333
2.948,1.0
2.95,-1.3333333333333333
2.952,-4.0
2.954,3.6666666666666665
2.956,0.0
2.958,-6.0
2.96,-1.6666666666666667
2.962,-6.0
2.964,-9.666666666666666
2.966,3.6666666666666665
2.968,-1.0
2.97,-1.0
2.972,-0.6666666666666666
2.974,-0.3333333333333333
2.976,-3.6666666666666665
2.978,-4.333333333333333
2.98,-9.666666666666666
2.982,-4.0
2.984,-0.6666666666666666
2.986,-3.0
2.988,-5.666666666666667
2.99,-8.333333333333334
2.992,-13.0
2.994,-11.333333333333334
2.996,-5.333333333333333
2.998,-9.0
3.0,-9.333333333333334
3.0020000000000002,-7.0
3.004,-1.0
3.0060000000000002,-11.333333333333334
3.008,-9.333333333333334
3.0100000000000002,-2.6666666666666665
3.012,-1.6666666666666667
3.0140000000000002,-6.333333333333333
3.016,-2.0
3.0180000000000002,-3.0
3.02,-4.666666666666667
3.0220000000000002,-15.333333333333334
3.024,-7.666666666666667
3.0260000000000002,-5.0
3.028,-9.333333333333334
3.0300000000000002,-8.666666666666666
3.032,-6.333333333333333
3.0340000000000003,-6.0
3.036,-3.3333333333333335
3.0380000000000003,-4.0
3.04,-9.0
3.0420000000000003,-6.333333333333333
3.044,-5.333333333333333
3.0460000000000003,-7.666666666666667
3.048,-10.0
3.0500000000000003,-11.333333333333334
3.052,-5.333333333333333
3.0540000000000003,-2.6666666666666665
3.056,-6.0
3.0580000000000003,-2.3333333333333335
3.06,9.666666666666666
3.0620000000000003,17.666666666666668
3.064,27.666666666666668
3.0660000000000003,38.333333333333336
3.068,52.333333333333336
3.0700000000000003,60.333333333333336
3.072,70.33333333333333
3.074,75.0
3.076,71.33333333333333
3.078,68.33333333333333
3.08,73.66666666666667
3.082,61.666666666666664
3.084,44.0
3.086,38.333333333333336
3.088,28.333333333333332
3.09,8.333333333333334
3.092,3.0
3.094,-1.6666666666666667
3.096,-0.3333333333333333
3.098,-3.3333333333333335
3.1,0.6666666666666666
3.102,2.3333333333333335
3.104,1.6666666666666667
3.106,-6.333333333333333
3.108,-6.333333333333333
3.11,-8.333333333333334
3.112,-5.666666666666667
3.114,1.3333333333333333
3.116,-2.0
3.118,-4.333333333333333
3.12,-2.6666666666666665
3.122,-11.0
3.124,-12.0
3.126,-9.333333333333334
3.128,-1.6666666666666667
3.13,5.666666666666667
3.132,2.6666666666666665
3.134,-1.0
3.136,-1.3333333333333333
3.138,-5.666666666666667
3.14,-12.333333333333334
3.142,-10.666666666666666
3.144,-2.6666666666666665
3.146,-1.0
3.148,1.0
3.15,-1.3333333333333333
3.152,-1.3333333333333333
3.154,3.3333333333333335
3.156,-1.3333333333333333
3.158,-4.0
3.16,-2.3333333333333335
3.162,-0.6666666666666666
3.164,-2.3333333333333335
3.166,0.3333333333333333
3.168,0.3333333333333333
3.17,-6.0
3.172,-5.0
3.174,-3.0
3.176,-4.333333333333333
3.178,-5.333333333333333
3.18,7.0
3.182,2.0
3.184,-1.6666666666666667
3.186,1.0
3.188,-2.6666666666666665
3.19,-1.0
3.192,-6.0
3.194,-2.6666666666666665
3.196,0.6666666666666666
3.198,-1.0
3.2,0.6666666666666666
3.202,6.0
3.204,1.3333333333333333
3.206,6.333333333333333
3.208,11.333333333333334
3.21,11.0
3.212,6.333333333333333
3.214,3.3333333333333335
3.216,-1.3333333333333333
3.218,1.6666666666666667
3.22,5.333333333333333
3.222,0.3333333333333333
3.224,1.0
3.226,-2.0
3.228,7.333333333333333
3.23,7.666666666666667
3.232,5.666666666666667
3.234,6.666666666666667
3.236,11.0
3.238,7.0
3.24,13.0
3.242,11.333333333333334
3.244,8.666666666666666
3.246,11.0
3.248,7.666666666666667
3.25,11.0
3.2520000000000002,13.0
3.254,16.333333333333332
3.2560000000000002,19.0
3.258,14.0
3.2600000000000002,5.0
3.262,12.333333333333334
3.2640000000000002,15.0
3.266,17.0
3.2680000000000002,12.666666666666666
3.27,15.333333333333334
3.2720000000000002,24.666666666666668
3.274,24.333333333333332
3.2760000000000002,23.0
3.278,18.0
3.2800000000000002,20.333333333333332
3.282,18.666666666666668
3.2840000000000003,16.333333333333332
3.286,14.0
3.2880000000000003,19.0
3.29,18.666666666666668
3.2920000000000003,11.0
3.294,16.0
3.2960000000000003,21.0
3.298,17.333333333333332
3.3000000000000003,15.333333333333334
3.302,17.666666666666668
3.3040000000000003,22.0
3.306,15.666666666666666
3.3080000000000003,17.333333333333332
3.31,18.333333333333332
3.3120000000000003,18.666666666666668
3.314,15.666666666666666
3.3160000000000003,4.666666666666667
3.318,7.333333333333333
3.3200000000000003,10.333333333333334
3.322,14.0
3.3240000000000003,13.0
3.326,13.666666666666666
3.3280000000000003,8.666666666666666
3.33,6.666666666666667
3.332,14.0
3.334,7.333333333333333
3.336,6.333333333333333
3.338,3.6666666666666665
3.34,-0.3333333333333333
3.342,2.6666666666666665
3.344,4.333333333333333
3.346,-0.3333333333333333
3.348,-2.3333333333333335
3.35,-1.6666666666666667
3.352,-1.3333333333333333
3.354,-3.0
3.356,4.0
3.358,0.6666666666666666
3.36,1.0
3.362,-4.0
3.364,0.0
3.366,0.6666666666666666
3.368,-5.666666666666667
3.37,-2.3333333333333335
3.372,-3.3333333333333335
3.374,-6.666666666666667
3.376,-5.666666666666667
3.378,-10.333333333333334
3.38,-10.333333333333334
3.382,-2.0
3.384,-2.0
3.386,-7.666666666666667
3.388,0.3333333333333333
3.39,4.0
3.392,1.3333333333333333
3.394,1.3333333333333333
3.396,-1.0
3.398,-5.0
3.4,-1.3333333333333333
3.402,-5.666666666666667
3.404,0.0
3.406,0.3333333333333333
3.408,-4.666666666666667
3.41,-7.333333333333333
3.412,-5.333333333333333
3.414,-5.0
3.416,-12.666666666666666
3.418,-10.0
3.42,-11.666666666666666
3.422,-11.0
3.424,-6.333333333333333
3.426,-8.333333333333334
3.428,0.6666666666666666
3.43,7.333333333333333
3.432,3.6666666666666665
3.434,-1.3333333333333333
3.436,5.0
3.438,1.0
3.44,-6.333333333333333
3.442,-1.3333333333333333
3.444,-4.666666666666667
3.446,-0.3333333333333333
3.448,-5.666666666666667
3.45,-5.0
3.452,-2.3333333333333335
3.454,-5.0
3.456,-3.3333333333333335
3.458,-8.0
3.46,-0.6666666666666666
3.462,0.3333333333333333
3.464,-4.666666666666667
3.466,-3.0
3.468,4.0
3.47,5.666666666666667
3.472,1.3333333333333333
3.474,3.6666666666666665
3.476,1.0
3.478,-4.666666666666667
3.48,-5.333333333333333
3.482,-0.6666666666666666
3.484,-1.6666666666666667
3.486,-2.3333333333333335
3.488,-4.666666666666667
3.49,-3.0
3.492,-3.0
3.494,3.0
3.496,-0.6666666666666666
3.498,-3.0
3.5,-1.0
3.5020000000000002,-2.6666666666666665
3.504,-3.0
3.5060000000000002,-4.0
3.508,-1.3333333333333333
3.5100000000000002,-6.0
3.512,-4.666666666666667
3.5140000000000002,-5.0
3.516,-9.333333333333334
3.5180000000000002,0.6666666666666666
3.52,2.3333333333333335
3.5220000000000002,-3.0
3.524,0.6666666666666666
3.5260000000000002,-2.0
3.528,-2.3333333333333335
3.5300000000000002,-1.0
3.532,0.6666666666666666
3.5340000000000003,-2.3333333333333335
3.536,-1.6666666666666667
3.5380000000000003,-1.0
3.54,-3.3333333333333335
3.5420000000000003,-3.3333333333333335
3.544,-8.0
3.5460000000000003,-5.666666666666667
3.548,-2.6666666666666665
3.5500000000000003,-8.333333333333334
3.552,-4.666666666666667
3.5540000000000003,-10.666666666666666
3.556,-3.0
3.5580000000000003,2.3333333333333335
3.56,3.0
3.5620000000000003,0.6666666666666666
3.564,-4.666666666666667
3.5660000000000003,-6.666666666666667
3.568,-8.333333333333334
3.5700000000000003,0.0
3.572,-6.0
3.5740000000000003,-5.333333333333333
3.576,-2.0
3.5780000000000003,-1.3333333333333333
3.58,-2.6666666666666665
3.5820000000000003,-3.3333333333333335
3.584,-6.0
3.586,-8.0
3.588,-10.0
3.59,0.3333333333333333
3.592,2.3333333333333335
3.594,-0.3333333333333333
3.596,-13.333333333333334
3.598,-5.666666666666667
3.6,-8.0
3.602,-7.333333333333333
3.604,-4.0
3.606,-10.333333333333334
3.608,-8.666666666666666
3.61,-3.6666666666666665
3.612,-4.666666666666667
3.614,0.6666666666666666
3.616,-2.0
3.618,-10.666666666666666
3.62,-8.333333333333334
3.622,6.666666666666667
3.624,8.666666666666666
3.626,-1.3333333333333333
3.628,-0.3333333333333333
3.63,-4.0
3.632,-6.666666666666667
3.634,-4.0
3.636,-7.0
3.638,-2.6666666666666665
3.64,-9.333333333333334
3.642,-7.0
3.644,-6.0
3.646,-4.0
3.648,-7.0
3.65,-8.0
3.652,-7.333333333333333
3.654,-6.0
3.656,-3.3333333333333335
3.658,2.3333333333333335
3.66,3.3333333333333335
3.662,-0.6666666666666666
3.664,-6.0
3.666,-6.0
3.668,-0.6666666666666666
3.67,-4.0
3.672,-9.0
3.674,-4.666666666666667
3.676,-2.6666666666666665
3.678,-7.0
3.68,-12.333333333333334
3.682,-4.0
3.684,-5.666666666666667
3.686,-1.0
3.688,-6.0
3.69,-2.6666666666666665
3.692,-0.3333333333333333
3.694,-2.0
3.696,-1.6666666666666667
3.698,-1.0
3.7,2.6666666666666665
3.702,0.0
3.704,-1.3333333333333333
3.706,-3.3333333333333335
3.708,-4.0
3.71,-3.3333333333333335
3.712,-1.0
3.714,-4.0
3.716,0.3333333333333333
3.718,0.0
3.72,2.0
3.722,2.6666666666666665
3.724,-0.3333333333333333
3.726,-1.3333333333333333
3.728,6.0
3.73,-1.6666666666666667
3.732,-3.0
3.734,-2.6666666666666665
3.736,-1.0
3.738,-5.666666666666667
3.74,-11.666666666666666
3.742,-2.6666666666666665
3.744,-3.6666666666666665
3.746,-2.6666666666666665
3.748,-7.0
3.75,-7.666666666666667
3.7520000000000002,-3.6666666666666665
3.754,-7.666666666666667
3.7560000000000002,-7.333333333333333
3.758,-3.3333333333333335
3.7600000000000002,-9.0
3.762,-9.0
3.7640000000000002,-7.666666666666667
3.766,-0.3333333333333333
3.7680000000000002,-2.0
3.77,-3.3333333333333335
3.7720000000000002,-1.0
3.774,1.3333333333333333
3.7760000000000002,-7.0
3.778,-5.0
3.7800000000000002,0.0
3.782,-6.666666666666667
3.7840000000000003,-7.0
3.786,-7.333333333333333
3.7880000000000003,-7.666666666666667
3.79,-4.666666666666667
3.7920000000000003,-3.6666666666666665
3.794,-7.0
3.7960000000000003,-14.0
3.798,-5.666666666666667
3.8000000000000003,4.333333333333333
3.802,-0.6666666666666666
3.8040000000000003,15.0
3.806,24.666666666666668
3.8080000000000003,33.333333333333336
3.81,42.333333333333336
3.8120000000000003,45.0
3.814,61.0
3.8160000000000003,73.0
3.818,78.0
3.8200000000000003,76.66666666666667
3.822,77.33333333333333
3.8240000000000003,78.0
3.826,69.33333333333333
3.8280000000000003,55.333333333333336
3.83,40.333333333333336
3.8320000000000003,28.333333333333332
3.834,11.666666666666666
3.8360000000000003,-3.0
3.838,-6.333333333333333
3.84,-5.666666666666667
3.842,-7.333333333333333
3.844,-3.3333333333333335
3.846,-8.666666666666666
3.848,-8.333333333333334
3.85,-5.0
3.852,-7.0
3.854,-3.3333333333333335
3.856,-3.0
3.858,0.0
3.86,-1.3333333333333333
3.862,0.3333333333333333
3.864,-4.333333333333333
3.866,-0.6666666666666666
3.868,1.6666666666666667
3.87,0.0
3.872,-3.3333333333333335
3.874,-0.3333333333333333
3.876,-1.0
3.878,-4.666666666666667
3.88,-9.333333333333334
3.882,-1.3333333333333333
3.884,0.3333333333333333
3.886,-4.0
3.888,-0.3333333333333333
3.89,-0.6666666666666666
3.892,-3.3333333333333335
3.894,-3.0
3.896,-0.6666666666666666
3.898,-4.0
3.9,-6.0
3.902,7.333333333333333
3.904,1.6666666666666667
3.906,-8.666666666666666
3.908,-4.333333333333333
3.91,-6.0
3.912,-4.0
3.914,-6.666666666666667
3.916,0.0
3.918,0.3333333333333333
3.92,-2.0
3.922,0.6666666666666666
3.924,0.3333333333333333
3.926,-0.3333333333333333
3.928,6.666666666666667
3.93,5.333333333333333
3.932,-1.0
3.934,3.0
3.936,1.3333333333333333
3.938,-1.6666666666666667
3.94,0.0
3.942,1.3333333333333333
3.944,5.333333333333333
3.946,3.3333333333333335
3.948,5.666666666666667
3.95,2.6666666666666665
3.952,-5.666666666666667
3.954,3.6666666666666665
3.956,5.333333333333333
3.958,-8.333333333333334
3.96,4.0
3.962,10.666666666666666
3.964,2.6666666666666665
3.966,8.666666666666666
3.968,7.333333333333333
3.97,6.666666666666667
3.972,3.6666666666666665
3.974,2.3333333333333335
3.976,6.0
3.978,8.666666666666666
3.98,11.666666666666666
3.982,7.333333333333333
3.984,9.333333333333334
3.986,11.0
3.988,8.0
3.99,10.333333333333334
3.992,9.333333333333334
3.994,10.666666666666666
3.996,9.333333333333334
3.998,12.333333333333334
4.0,11.666666666666666
4.002,5.666666666666667
4.0040000000000004,10.0
4.006,18.333333333333332
4.008,15.333333333333334
4.01,19.666666666666668
4.0120000000000005,16.666666666666668
4.014,13.0
4.016,14.666666666666666
4.018,21.666666666666668
4.0200000000000005,16.666666666666668
4.022,18.666666666666668
4.024,19.333333333333332
4.026,19.0
4.0280000000000005,20.333333333333332
4.03,20.666666666666668
4.032,21.0
4.034,19.666666666666668
4.0360000000000005,16.0
4.038,19.666666666666668
4.04,21.666666666666668
4.042,18.666666666666668
4.0440000000000005,18.666666666666668
4.046,14.666666666666666
4.048,18.333333333333332
4.05,19.0
4.0520000000000005,16.333333333333332
4.054,11.0
4.056,16.0
4.058,11.666666666666666
4.0600000000000005,7.333333333333333
4.062,11.0
4.064,9.333333333333334
4.066,11.0
4.0680000000000005,12.666666666666666
4.07,14.0
4.072,5.333333333333333
4.074,6.0
4.0760000000000005,7.333333333333333
4.078,6.666666666666667
4.08,11.0
4.082,9.0
4.0840000000000005,5.0
4.086,5.666666666666667
4.088,4.333333333333333
4.09,3.3333333333333335
4.0920000000000005,1.0
4.094,-7.333333333333333
4.096,-4.666666666666667
4.098,0.3333333333333333
4.1,-0.6666666666666666
4.102,-3.0
4.104,0.0
4.106,-2.6666666666666665
4.108,1.0
4.11,-3.6666666666666665
4.112,-0.6666666666666666
4.114,-0.3333333333333333
4.116,-2.6666666666666665
4.118,-5.333333333333333
4.12,-2.0
4.122,-4.333333333333333
4.124,-4.666666666666667
4.126,-7.666666666666667
4.128,-3.3333333333333335
4.13,0.3333333333333333
4.132,6.0
4.134,-0.3333333333333333
4.136,-2.0
4.138,-2.6666666666666665
4.14,-8.0
4.142,-7.666666666666667
4.144,4.0
4.146,1.3333333333333333
4.148,-5.666666666666667
4.15,-4.333333333333333
4.152,-4.0
4.154,-2.6666666666666665
4.156,-5.666666666666667
4.158,0.0
4.16,-4.0
4.162,-2.6666666666666665
4.164,1.0
4.166,-3.3333333333333335
4.168,-5.666666666666667
4.17,-7.0
4.172,-5.333333333333333
4.174,-5.666666666666667
4.176,6.333333333333333
4.178,2.0
4.18,-8.333333333333334
4.182,-0.3333333333333333
4.184,2.6666666666666665
4.186,0.0
4.188,-3.3333333333333335
4.19,-2.0
4.192,-2.3333333333333335
4.194,-4.333333333333333
4.196,0.6666666666666666
4.198,0.3333333333333333
4.2,-3.3333333333333335
4.202,-4.0
4.204,-5.666666666666667
4.206,-5.0
4.208,-5.333333333333333
4.21,-1.0
4.212,-1.3333333333333333
4.214,0.0
4.216,2.6666666666666665
4.218,1.0
4.22,-5.0
4.222,-3.0
4.224,-1.6666666666666667
4.226,4.666666666666667
4.228,0.3333333333333333
4.23,-3.0
4.232,1.0
4.234,-2.6666666666666665
4.236,-0.3333333333333333
4.238,3.3333333333333335
4.24,2.6666666666666665
4.242,-0.6666666666666666
4.244,1.6666666666666667
4.246,4.666666666666667
4.248,6.0
4.25,2.6666666666666665
4.252,-1.6666666666666667
4.2540000000000004,2.3333333333333335
4.256,-4.666666666666667
4.258,-7.333333333333333
4.26,0.0
4.2620000000000005,7.333333333333333
4.264,6.666666666666667
4.266,7.0
4.268,2.3333333333333335
4.2700000000000005,4.0
4.272,4.0
4.274,3.6666666666666665
4.276,1.3333333333333333
4.2780000000000005,3.6666666666666665
4.28,-2.0
4.282,-5.666666666666667
4.284,-4.666666666666667
4.2860000000000005,-0.3333333333333333
4.288,-5.333333333333333
4.29,-2.6666666666666665
4.292,8.0
4.2940000000000005,4.333333333333333
4.296,7.0
4.298,-2.0
4.3,-2.3333333333333335
4.3020000000000005,-2.6666666666666665
4.304,-5.0
4.306,-8.0
4.308,-7.0
4.3100000000000005,-8.333333333333334
4.312,3.0
4.314,1.0
4.316,-3.0
4.3180000000000005,2.6666666666666665
4.32,4.666666666666667
4.322,2.3333333333333335
4.324,1.0
4.3260000000000005,-0.3333333333333333
4.328,-1.3333333333333333
4.33,2.3333333333333335
4.332,2.0
4.3340000000000005,-0.6666666666666666
4.336,-2.6666666666666665
4.338,-3.6666666666666665
4.34,-2.0
4.3420000000000005,2.6666666666666665
4.344,6.333333333333333
4.346,-1.0
4.348,-6.0
4.3500000000000005,-6.333333333333333
4.352,-2.6666666666666665
4.354,-5.0
4.356,-4.0
4.358,-7.0
4.36,-10.0
4.362,1.3333333333333333
4.364,12.0
4.366,-1.3333333333333333
4.368,0.3333333333333333
4.37,4.0
4.372,6.0
4.374,-0.3333333333333333
4.376,0.0
4.378,4.0
4.38,-6.0
4.382,-4.666666666666667
4.384,-4.0
4.386,-7.333333333333333
4.388,-4.333333333333333
4.39,-2.0
4.392,2.3333333333333335
4.394,-1.3333333333333333
4.396,-4.333333333333333
4.398,0.6666666666666666
4.4,4.0
4.402,-3.3333333333333335
4.404,-3.3333333333333335
4.406,0.0
4.408,-5.333333333333333
4.41,0.0
4.412,2.3333333333333335
4.414,5.333333333333333
4.416,6.0
4.418,2.6666666666666665
4.42,3.0
4.422,1.6666666666666667
4.424,-2.6666666666666665
4.426,-5.0
4.428,-3.3333333333333335
4.43,9.0
4.432,12.0
4.434,7.666666666666667
4.436,6.333333333333333
4.438,4.333333333333333
4.44,-1.0
4.442,0.0
4.444,2.6666666666666665
4.446,4.666666666666667
4.448,1.3333333333333333
4.45,-5.333333333333333
4.452,-8.0
4.454,-4.0
4.456,0.3333333333333333
4.458,-9.0
4.46,-6.333333333333333
4.462,-4.666666666666667
4.464,-0.6666666666666666
4.466,-8.666666666666666
4.468,1.3333333333333333
4.47,3.3333333333333335
4.472,1.6666666666666667
4.474,0.6666666666666666
4.476,-4.0
4.478,-1.6666666666666667
4.48,0.6666666666666666
4.482,-3.6666666666666665
4.484,1.3333333333333333
4.486,-4.333333333333333
4.488,-5.333333333333333
4.49,-6.333333333333333
4.492,-3.0
4.494,-3.3333333333333335
4.496,-0.6666666666666666
4.498,-4.333333333333333
4.5,2.6666666666666665
4.502,0.6666666666666666
4.5040000000000004,-3.0
4.506,-1.6666666666666667
4.508,-1.6666666666666667
4.51,-5.0
4.5120000000000005,-4.666666666666667
4.514,1.6666666666666667
4.516,-3.3333333333333335
4.518,-6.333333333333333
4.5200000000000005,0.6666666666666666
4.522,9.0
4.524,8.0
4.526,17.0
4.5280000000000005,22.0
4.53,26.333333333333332
4.532,32.0
4.534,43.0
4.5360000000000005,57.333333333333336
4.538,60.0
4.54,68.33333333333333
4.542,69.33333333333333
4.5440000000000005,71.33333333333333
4.546,76.66666666666667
4.548,73.33333333333333
4.55,57.0
4.5520000000000005,41.666666666666664
4.554,32.666666666666664
4.556,16.333333333333332
4.558,7.0
4.5600000000000005,-4.0
4.562,-10.0
4.564,-7.666666666666667
4.566,-9.333333333333334
4.5680000000000005,-3.3333333333333335
4.57,-4.333333333333333
4.572,1.0
4.574,-4.333333333333333
4.5760000000000005,-2.6666666666666665
4.578,-10.0
4.58,-10.666666666666666
4.582,-4.333333333333333
4.5840000000000005,4.333333333333333
4.586,7.333333333333333
4.588,3.3333333333333335
4.59,3.6666666666666665
4.5920000000000005,-3.6666666666666665
4.594,-5.0
4.596,-7.0
4.598,-0.3333333333333333
4.6000000000000005,0.3333333333333333
4.602,8.0
4.604,5.333333333333333
4.606,1.0
4.6080000000000005,-6.0
4.61,-4.333333333333333
4.612,3.0
4.614,7.666666666666667
4.616,7.666666666666667
4.618,4.666666666666667
4.62,1.3333333333333333
4.622,5.0
4.624,4.0
4.626,-5.666666666666667
4.628,-7.666666666666667
4.63,-2.6666666666666665
4.632,-2.0
4.634,1.3333333333333333
4.636,3.0
4.638,4.333333333333333
4.64,6.333333333333333
4.642,4.333333333333333
4.644,4.666666666666667
4.646,-0.3333333333333333
4.648,-4.333333333333333
4.65,6.0
4.652,3.3333333333333335
4.654,5.333333333333333
4.656,-0.3333333333333333
4.658,2.3333333333333335
4.66,1.0
4.662,9.0
4.664,11.0
4.666,7.0
4.668,12.333333333333334
4.67,6.666666666666667
4.672,3.3333333333333335
4.674,6.666666666666667
4.676,6.333333333333333
4.678,-0.6666666666666666
4.68,8.333333333333334
4.682,11.666666666666666
4.684,9.333333333333334
4.686,10.0
4.688,10.666666666666666
4.69,9.0
4.692,10.333333333333334
4.694,6.666666666666667
4.696,10.333333333333334
4.698,5.333333333333333
4.7,14.0
4.702,14.666666666666666
4.704,10.666666666666666
4.706,11.666666666666666
4.708,16.666666666666668
4.71,19.0
4.712,20.333333333333332
4.714,15.666666666666666
4.716,14.666666666666666
4.718,20.666666666666668
4.72,16.666666666666668
4.722,20.333333333333332
4.724,22.666666666666668
4.726,11.0
4.728,15.666666666666666
4.73,16.666666666666668
4.732,24.666666666666668
4.734,22.666666666666668
4.736,21.333333333333332
4.738,27.333333333333332
4.74,18.333333333333332
4.742,16.666666666666668
4.744,16.0
4.746,21.666666666666668
4.748,26.333333333333332
4.75,30.666666666666668
4.752,21.666666666666668
4.7540000000000004,18.333333333333332
4.756,19.666666666666668
4.758,26.333333333333332
4.76,32.333333333333336
4.7620000000000005,26.333333333333332
4.764,28.0
4.766,20.333333333333332
4.768,18.0
4.7700000000000005,22.333333333333332
4.772,18.666666666666668
4.774,15.0
4.776,19.0
4.7780000000000005,11.0
4.78,12.333333333333334
4.782,3.6666666666666665
4.784,12.666666666666666
4.7860000000000005,17.333333333333332
4.788,16.0
4.79,20.0
4.792,14.666666666666666
4.7940000000000005,13.333333333333334
4.796,13.666666666666666
4.798,4.333333333333333
4.8,0.3333333333333333
4.8020000000000005,3.0
4.804,8.333333333333334
4.806,11.0
4.808,8.0
4.8100000000000005,2.6666666666666665
4.812,3.0
4.814,-2.3333333333333335
4.816,-0.6666666666666666
4.8180000000000005,1.6666666666666667
4.82,0.6666666666666666
4.822,-1.3333333333333333
4.824,-5.666666666666667
4.8260000000000005,4.0
4.828,8.0
4.83,6.0
4.832,2.0
4.8340000000000005,4.666666666666667
4.836,4.0
4.838,-3.3333333333333335
4.84,-8.0
4.8420000000000005,2.6666666666666665
4.844,5.0
4.846,-2.3333333333333335
4.848,-5.0
4.8500000000000005,4.333333333333333
4.852,-1.6666666666666667
4.854,-5.333333333333333
4.856,-0.6666666666666666
4.8580000000000005,-3.3333333333333335
4.86,0.3333333333333333
4.862,-1.0
4.864,0.0
4.866,-4.666666666666667
4.868,-7.0
4.87,-1.6666666666666667
4.872,-4.666666666666667
4.874,-7.666666666666667
4.876,2.6666666666666665
4.878,5.333333333333333
4.88,4.333333333333333
4.882,5.0
4.884,0.0
4.886,-8.666666666666666
4.888,-8.666666666666666
4.89,-3.0
4.892,0.6666666666666666
4.894,5.0
4.896,6.666666666666667
4.898,6.333333333333333
4.9,7.0
4.902,2.3333333333333335
4.904,5.0
4.906,1.0
4.908,2.0
4.91,1.0
4.912,-7.0
4.914,-0.3333333333333333
4.916,4.333333333333333
4.918,4.333333333333333
4.92,0.6666666666666666
4.922,-0.3333333333333333
4.924,-2.3333333333333335
4.926,-3.3333333333333335
4.928,4.666666666666667
4.93,-8.0
4.932,-6.333333333333333
4.934,3.6666666666666665
4.936,6.0
4.938,2.6666666666666665
4.94,1.3333333333333333
4.942,8.0
4.944,3.3333333333333335
4.946,2.6666666666666665
4.948,7.333333333333333
4.95,5.666666666666667
4.952,8.666666666666666
4.954,1.3333333333333333
4.956,4.666666666666667
4.958,7.0
4.96,5.0
4.962,1.6666666666666667
4.964,-9.0
4.966,-4.0
4.968,5.666666666666667
4.97,5.666666666666667
4.972,-1.6666666666666667
4.974,-5.0
4.976,4.333333333333333
4.978,8.0
4.98,8.666666666666666
4.982,0.6666666666666666
4.984,-0.3333333333333333
4.986,-1.3333333333333333
4.988,-7.333333333333333
4.99,-1.0
4.992,-2.0
4.994,0.3333333333333333
4.996,7.666666666666667
4.998,8.333333333333334
5.0,4.333333333333333
5.002,3.0
5.0040000000000004,-1.6666666666666667
5.006,-3.3333333333333335
5.008,-14.666666666666666
5.01,0.3333333333333333
5.0120000000000005,8.666666666666666
5.014,7.0
5.016,2.3333333333333335
5.018,1.3333333333333333
5.0200000000000005,-0.3333333333333333
5.022,-7.0
5.024,-6.666666666666667
5.026,-3.3333333333333335
5.0280000000000005,-3.3333333333333335
5.03,-2.0
5.032,4.333333333333333
5.034,7.666666666666667
5.0360000000000005,3.0
5.038,7.0
5.04,5.666666666666667
5.042,0.3333333333333333
5.0440000000000005,-0.6666666666666666
5.046,-0.3333333333333333
5.048,2.0
5.05,-1.6666666666666667
5.0520000000000005,3.3333333333333335
5.054,1.0
5.056,-1.6666666666666667
5.058,4.333333333333333
5.0600000000000005,2.0
5.062,-0.3333333333333333
5.064,3.6666666666666665
5.066,6.333333333333333
5.0680000000000005,2.0
5.07,-2.3333333333333335
5.072,2.3333333333333335
5.074,3.6666666666666665
5.0760000000000005,-1.0
5.078,-1.0
5.08,3.0
5.082,0.3333333333333333
5.0840000000000005,-2.0
5.086,0.3333333333333333
5.088,9.0
5.09,3.3333333333333335
5.0920000000000005,-4.0
5.094,-2.3333333333333335
5.096,-2.0
5.098,-4.333333333333333
5.1000000000000005,1.6666666666666667
5.102,5.333333333333333
5.104,6.333333333333333
5.106,8.666666666666666
5.1080000000000005,9.0
5.11,8.333333333333334
5.112,9.0
5.114,3.3333333333333335
5.1160000000000005,2.6666666666666665
5.118,2.0
5.12,-5.0
5.122,2.6666666666666665
5.124,7.333333333333333
5.126,1.0
5.128,-6.0
5.13,2.3333333333333335
5.132,-5.666666666666667
5.134,2.6666666666666665
5.136,-3.3333333333333335
5.138,-3.6666666666666665
5.14,-5.666666666666667
5.142,1.0
5.144,3.6666666666666665
5.146,5.666666666666667
5.148,0.6666666666666666
5.15,3.0
5.152,6.333333333333333
5.154,-2.3333333333333335
5.156,-4.333333333333333
5.158,0.0
5.16,0.3333333333333333
5.162,-12.666666666666666
5.164,-3.3333333333333335
5.166,4.333333333333333
5.168,1.6666666666666667
5.17,1.0
5.172,0.6666666666666666
5.174,-6.0
5.176,-1.3333333333333333
5.178,-6.0
5.18,-4.333333333333333
5.182,-4.0
5.184,3.0
5.186,-1.6666666666666667
5.188,1.3333333333333333
5.19,4.333333333333333
5.192,4.666666666666667
5.194,5.666666666666667
5.196,-4.0
5.198,-10.666666666666666
5.2,-6.0
5.202,1.6666666666666667
5.204,3.0
5.206,8.333333333333334
5.208,15.333333333333334
5.21,17.0
5.212,19.0
5.214,30.333333333333332
5.216,47.333333333333336
5.218,49.666666666666664
5.22,57.666666666666664
5.222,64.66666666666667
5.224,65.0
5.226,70.0
5.228,70.0
5.23,58.666666666666664
5.232,53.333333333333336
5.234,51.666666666666664
5.236,38.666666666666664
5.238,23.333333333333332
5.24,8.0
5.242,-9.666666666666666
5.244,-14.666666666666666
5.246,-9.666666666666666
5.248,-6.333333333333333
5.25,-2.0
5.252,4.0
5.2540000000000004,5.666666666666667
5.256,2.0
5.258,0.3333333333333333
5.26,4.666666666666667
5.2620000000000005,-0.6666666666666666
5.264,-5.333333333333333
5.266,-0.6666666666666666
5.268,-0.3333333333333333
5.2700000000000005,6.333333333333333
5.272,5.666666666666667
5.274,-1.6666666666666667
5.276,3.0
5.2780000000000005,4.666666666666667
5.28,1.3333333333333333
5.282,0.6666666666666666
5.284,6.333333333333333
5.2860000000000005,-0.3333333333333333
5.288,-4.0
5.29,-2.3333333333333335
5.292,-2.6666666666666665
5.2940000000000005,-2.6666666666666665
5.296,2.0
5.298,2.3333333333333335
5.3,2.6666666666666665
5.3020000000000005,8.0
5.304,10.666666666666666
5.306,6.0
5.308,1.6666666666666667
5.3100000000000005,1.6666666666666667
5.312,11.0
5.314,4.0
5.316,7.666666666666667
5.3180000000000005,8.666666666666666
5.32,7.0
5.322,-3.6666666666666665
5.324,-0.6666666666666666
5.3260000000000005,6.0
5.328,10.0
5.33,8.333333333333334
5.332,4.333333333333333
5.3340000000000005,5.666666666666667
5.336,8.333333333333334
5.338,5.0
5.34,6.333333333333333
5.3420000000000005,5.0
5.344,4.333333333333333
5.346,0.3333333333333333
5.348,12.0
5.3500000000000005,14.666666666666666
5.352,11.333333333333334
5.354,13.666666666666666
5.356,11.333333333333334
5.3580000000000005,11.0
5.36,9.0
5.362,7.333333333333333
5.364,7.666666666666667
5.3660000000000005,8.333333333333334
5.368,10.333333333333334
5.37,12.666666666666666
5.372,11.666666666666666
5.3740000000000006,9.666666666666666
5.376,10.666666666666666
5.378,12.333333333333334
5.38,13.666666666666666
5.382,16.333333333333332
5.384,17.0
5.386,18.666666666666668
5.388,12.666666666666666
5.39,3.0
5.392,18.0
5.394,22.333333333333332
5.396,19.333333333333332
5.398,19.666666666666668
5.4,22.333333333333332
5.402,19.0
5.404,20.666666666666668
5.406,22.333333333333332
5.408,17.333333333333332
5.41,22.0
5.412,21.333333333333332
5.414,23.666666666666668
5.416,26.333333333333332
5.418,26.333333333333332
5.42,22.0
5.422,21.666666666666668
5.424,22.666666666666668
5.426,23.333333333333332
5.428,27.666666666666668
5.43,31.333333333333332
5.432,30.333333333333332
5.434,28.0
5.436,28.666666666666668
5.438,26.0
5.44,23.333333333333332
5.442,19.666666666666668
5.444,16.0
5.446,23.333333333333332
5.448,25.333333333333332
5.45,25.0
5.452,23.333333333333332
5.454,19.666666666666668
5.456,23.333333333333332
5.458,23.666666666666668
5.46,22.333333333333332
5.462,20.333333333333332
5.464,18.666666666666668
5.466,16.0
5.468,22.666666666666668
5.47,16.666666666666668
5.472,20.333333333333332
5.474,18.0
5.476,21.666666666666668
5.478,16.666666666666668
5.48,15.333333333333334
5.482,17.666666666666668
5.484,16.333333333333332
5.486,9.0
5.488,1.0
5.49,10.333333333333334
5.492,9.666666666666666
5.494,9.0
5.496,4.666666666666667
5.498,5.666666666666667
5.5,10.666666666666666
5.502,4.0
5.5040000000000004,-2.6666666666666665
5.506,2.6666666666666665
5.508,4.333333333333333
5.51,9.0
5.5120000000000005,3.6666666666666665
5.514,4.333333333333333
5.516,6.666666666666667
5.518,6.0
5.5200000000000005,6.666666666666667
5.522,-0.3333333333333333
5.524,-0.3333333333333333
5.526,-2.3333333333333335
5.5280000000000005,-0.3333333333333333
5.53,2.6666666666666665
5.532,3.6666666666666665
5.534,-0.6666666666666666
5.5360000000000005,-4.0
5.538,0.0
5.54,5.666666666666667
5.542,5.0
5.5440000000000005,5.333333333333333
5.546,2.6666666666666665
5.548,4.0
5.55,6.666666666666667
5.5520000000000005,1.3333333333333333
5.554,2.3333333333333335
5.556,-3.6666666666666665
5.558,-3.3333333333333335
5.5600000000000005,-1.6666666666666667
5.562,-5.333333333333333
5.564,4.333333333333333
5.566,4.333333333333333
5.5680000000000005,-4.0
5.57,2.6666666666666665
5.572,8.666666666666666
5.574,6.0
5.5760000000000005,2.6666666666666665
5.578,-4.333333333333333
5.58,4.666666666666667
5.582,8.666666666666666
5.5840000000000005,7.0
5.586,0.3333333333333333
5.588,3.6666666666666665
5.59,3.0
5.5920000000000005,1.3333333333333333
5.594,-2.6666666666666665
5.596,-0.3333333333333333
5.598,1.3333333333333333
5.6000000000000005,-2.0
5.602,3.0
5.604,4.333333333333333
5.606,6.666666666666667
5.6080000000000005,6.0
5.61,5.666666666666667
5.612,6.0
5.614,4.0
5.6160000000000005,6.333333333333333
5.618,3.3333333333333335
5.62,2.0
5.622,8.0
5.6240000000000006,10.0
5.626,5.0
5.628,-8.333333333333334
5.63,2.0
5.632,-0.6666666666666666
5.634,3.6666666666666665
5.636,4.666666666666667
5.638,10.0
5.64,8.666666666666666
5.642,-3.0
5.644,6.333333333333333
5.646,6.0
5.648,4.333333333333333
5.65,8.0
5.652,7.0
5.654,4.0
5.656,2.6666666666666665
5.658,1.0
5.66,-6.0
5.662,3.6666666666666665
5.664,3.3333333333333335
5.666,3.0
5.668,1.0
5.67,3.0
5.672,2.3333333333333335
5.674,-0.3333333333333333
5.676,0.6666666666666666
5.678,-1.3333333333333333
5.68,2.3333333333333335
5.682,-2.6666666666666665
5.684,3.6666666666666665
5.686,7.666666666666667
5.688,8.0
5.69,10.666666666666666
5.692,4.0
5.694,2.0
5.696,2.6666666666666665
5.698,4.0
5.7,4.333333333333333
5.702,-2.0
5.704,-3.0
5.706,6.0
5.708,0.0
5.71,0.0
5.712,4.333333333333333
5.714,7.333333333333333
5.716,3.3333333333333335
5.718,4.666666666666667
5.72,3.0
5.722,-8.0
5.724,5.333333333333333
5.726,1.0
5.728,2.6666666666666665
5.73,5.0
5.732,4.666666666666667
5.734,3.0
5.736,4.666666666666667
5.738,5.333333333333333
5.74,3.0
5.742,1.6666666666666667
5.744,4.666666666666667
5.746,1.3333333333333333
5.748,4.0
5.75,8.0
5.752,8.0
5.7540000000000004,6.333333333333333
5.756,5.333333333333333
5.758,11.0
5.76,8.0
5.7620000000000005,5.666666666666667
5.764,3.6666666666666665
5.766,3.3333333333333335
5.768,7.333333333333333
5.7700000000000005,9.333333333333334
5.772,4.666666666666667
5.774,2.3333333333333335
5.776,6.0
5.7780000000000005,3.3333333333333335
5.78,6.0
5.782,6.333333333333333
5.784,4.666666666666667
5.7860000000000005,4.666666666666667
5.788,5.666666666666667
5.79,3.6666666666666665
5.792,2.0
5.7940000000000005,8.0
5.796,8.0
5.798,5.333333333333333
5.8,0.0
5.8020000000000005,-2.3333333333333335
5.804,-10.666666666666666
5.806,-7.0
5.808,-3.3333333333333335
5.8100000000000005,1.6666666666666667
5.812,0.6666666666666666
5.814,-4.0
5.816,6.0
5.8180000000000005,7.333333333333333
5.82,2.3333333333333335
5.822,2.0
5.824,4.333333333333333
5.8260000000000005,1.3333333333333333
5.828,-5.666666666666667
5.83,0.6666666666666666
5.832,-6.666666666666667
5.8340000000000005,-1.0
5.836,-1.3333333333333333
5.838,4.666666666666667
5.84,6.666666666666667
5.8420000000000005,0.6666666666666666
5.844,5.333333333333333
5.846,-0.3333333333333333
5.848,-3.0
5.8500000000000005,-3.0
5.852,1.6666666666666667
5.854,3.0
5.856,1.3333333333333333
5.8580000000000005,-1.0
5.86,-3.3333333333333335
5.862,13.0
5.864,18.0
5.8660000000000005,20.333333333333332
5.868,29.666666666666668
5.87,35.333333333333336
5.872,36.333333333333336
5.8740000000000006,45.666666666666664
5.876,54.333333333333336
5.878,71.0
5.88,69.0
5.882000000000001,65.66666666666667
5.884,69.33333333333333
5.886,68.66666666666667
5.888,57.666666666666664
5.89,49.333333333333336
5.892,36.666666666666664
5.894,16.333333333333332
5.896,3.6666666666666665
5.898,1.0
5.9,1.3333333333333333
5.902,-4.666666666666667
5.904,3.3333333333333335
5.906,2.0
5.908,3.0
5.91,5.333333333333333
5.912,-2.6666666666666665
5.914,-2.6666666666666665
5.916,-1.3333333333333333
5.918,-1.3333333333333333
5.92,-2.0
5.922,0.3333333333333333
5.924,-1.0
5.926,6.666666666666667
5.928,4.333333333333333
5.93,4.666666666666667
5.932,3.6666666666666665
5.934,1.0
5.936,-5.666666666666667
5.938,-3.0
5.94,3.0
5.942,10.666666666666666
5.944,-0.3333333333333333
5.946,7.333333333333333
5.948,9.666666666666666
5.95,4.0
5.952,6.0
5.954,1.0
5.956,-0.6666666666666666
5.958,6.333333333333333
5.96,5.333333333333333
5.962,4.666666666666667
5.964,3.6666666666666665
5.966,6.0
5.968,5.0
5.97,5.333333333333333
5.972,5.333333333333333
5.974,7.0
5.976,4.333333333333333
5.978,5.0
5.98,7.666666666666667
5.982,10.666666666666666
5.984,9.0
5.986,11.0
5.988,8.333333333333334
5.99,4.0
5.992,4.333333333333333
5.994,-0.6666666666666666
5.996,0.3333333333333333
5.998,6.0
6.0,8.666666666666666
6.002,4.333333333333333
6.0040000000000004,-2.0
6.006,9.333333333333334
6.008,13.666666666666666
6.01,17.333333333333332
6.0120000000000005,11.333333333333334
6.014,13.666666666666666
6.016,9.333333333333334
6.018,3.3333333333333335
6.0200000000000005,4.666666666666667
6.022,11.0
6.024,14.333333333333334
6.026,13.0
6.0280000000000005,17.0
6.03,16.333333333333332
6.032,13.666666666666666
6.034,9.333333333333334
6.0360000000000005,9.0
6.038,10.0
6.04,13.333333333333334
6.042,19.0
6.0440000000000005,19.0
6.046,17.333333333333332
6.048,17.0
6.05,17.0
6.0520000000000005,16.666666666666668
6.054,13.666666666666666
6.056,16.0
6.058,22.666666666666668
6.0600000000000005,16.666666666666668
6.062,23.333333333333332
6.064,32.0
6.066,27.0
6.0680000000000005,22.0
6.07,21.666666666666668
6.072,19.666666666666668
6.074,21.0
6.0760000000000005,25.0
6.078,23.333333333333332
6.08,24.666666666666668
6.082,26.666666666666668
6.0840000000000005,26.0
6.086,29.333333333333332
6.088,31.333333333333332
6.09,33.666666666666664
6.0920000000000005,28.666666666666668
6.094,28.333333333333332
6.096,26.666666666666668
6.098,29.666666666666668
6.1000000000000005,25.0
6.102,28.333333333333332
6.104,21.333333333333332
6.106,18.666666666666668
6.1080000000000005,25.0
6.11,24.666666666666668
6.112,24.333333333333332
6.114,27.333333333333332
6.1160000000000005,26.666666666666668
6.118,26.333333333333332
6.12,22.666666666666668
6.122,21.333333333333332
6.1240000000000006,18.0
6.126,18.666666666666668
6.128,16.0
6.13,10.333333333333334
6.132000000000001,15.333333333333334
6.134,14.666666666666666
6.136,14.0
6.138,12.0
6.140000000000001,5.0
6.142,10.666666666666666
6.144,9.333333333333334
6.146,13.333333333333334
6.148,10.666666666666666
6.15,8.0
6.152,9.0
6.154,15.0
6.156,8.0
6.158,7.0
6.16,8.666666666666666
6.162,7.666666666666667
6.164,4.0
6.166,1.0
6.168,0.6666666666666666
6.17,-4.666666666666667
6.172,-3.6666666666666665
6.174,3.0
6.176,17.666666666666668
6.178,12.0
6.18,6.0
6.182,0.0
6.184,1.6666666666666667
6.186,2.0
6.188,-0.3333333333333333
6.19,0.0
6.192,2.0
6.194,2.0
6.196,7.666666666666667
6.198,14.0
6.2,18.333333333333332
6.202,1.3333333333333333
6.204,-5.0
6.206,-1.3333333333333333
6.208,2.6666666666666665
6.21,1.6666666666666667
6.212,1.0
6.214,1.3333333333333333
6.216,6.0
6.218,3.0
6.22,5.333333333333333
6.222,14.0
6.224,8.0
6.226,3.3333333333333335
6.228,8.666666666666666
6.23,8.0
6.232,1.3333333333333333
6.234,-1.6666666666666667
6.236,-2.3333333333333335
6.238,1.6666666666666667
6.24,5.666666666666667
6.242,4.333333333333333
6.244,11.0
6.246,8.333333333333334
6.248,2.6666666666666665
6.25,4.666666666666667
6.252,9.666666666666666
6.2540000000000004,11.333333333333334
6.256,6.0
6.258,6.666666666666667
6.26,3.6666666666666665
6.2620000000000005,4.0
6.264,12.333333333333334
6.266,4.0
6.268,5.0
6.2700000000000005,2.3333333333333335
6.272,-1.6666666666666667
6.274,-1.6666666666666667
6.276,5.0
6.2780000000000005,6.333333333333333
6.28,10.666666666666666
6.282,7.666666666666667
6.284,11.666666666666666
6.2860000000000005,10.666666666666666
6.288,8.666666666666666
6.29,5.0
6.292,-1.0
6.2940000000000005,-5.666666666666667
6.296,3.6666666666666665
6.298,2.3333333333333335
6.3,2.0
6.3020000000000005,7.0
6.304,6.333333333333333
6.306,5.666666666666667
6.308,4.0
6.3100000000000005,5.333333333333333
6.312,5.666666666666667
6.314,8.0
6.316,4.666666666666667
6.3180000000000005,6.0
6.32,8.666666666666666
6.322,10.666666666666666
6.324,0.3333333333333333
6.3260000000000005,-3.3333333333333335
6.328,0.0
6.33,3.6666666666666665
6.332,2.3333333333333335
6.3340000000000005,1.3333333333333333
6.336,-0.3333333333333333
6.338,5.0
6.34,10.0
6.3420000000000005,0.3333333333333333
6.344,1.3333333333333333
6.346,4.333333333333333
6.348,2.6666666666666665
6.3500000000000005,3.6666666666666665
6.352,1.6666666666666667
6.354,3.3333333333333335
6.356,6.333333333333333
6.3580000000000005,7.0
6.36,4.333333333333333
6.362,-0.3333333333333333
6.364,2.0
6.3660000000000005,1.6666666666666667
6.368,1.0
6.37,0.3333333333333333
6.372,-2.3333333333333335
6.3740000000000006,2.3333333333333335
6.376,-0.6666666666666666
6.378,3.3333333333333335
6.38,8.666666666666666
6.382000000000001,5.666666666666667
6.384,4.333333333333333
6.386,-1.3333333333333333
6.388,-5.666666666666667
6.390000000000001,7.0
6.392,15.666666666666666
6.394,11.666666666666666
6.396,3.0
6.398000000000001,1.0
6.4,3.3333333333333335
6.402,5.333333333333333
6.404,3.0
6.406,6.666666666666667
6.408,12.333333333333334
6.41,7.666666666666667
6.412,4.0
6.414,2.3333333333333335
6.416,-3.0
6.418,0.3333333333333333
6.42,0.6666666666666666
6.422,3.6666666666666665
6.424,14.666666666666666
6.426,9.333333333333334
6.428,7.666666666666667
6.43,11.333333333333334
6.432,8.333333333333334
6.434,5.333333333333333
6.436,3.6666666666666665
6.438,-2.0
6.44,-3.0
6.442,0.3333333333333333
6.444,-0.6666666666666666
6.446,6.0
6.448,5.333333333333333
6.45,3.3333333333333335
6.452,2.0
6.454,-2.6666666666666665
6.456,0.3333333333333333
6.458,3.6666666666666665
6.46,5.666666666666667
6.462,7.666666666666667
6.464,5.0
6.466,-0.6666666666666666
6.468,-4.666666666666667
6.47,1.3333333333333333
6.472,5.0
6.474,3.0
6.476,-2.3333333333333335
6.478,0.3333333333333333
6.48,2.3333333333333335
6.482,-4.666666666666667
6.484,10.666666666666666
6.486,1.6666666666666667
6.488,2.3333333333333335
6.49,-0.6666666666666666
6.492,5.333333333333333
6.494,0.0
6.496,4.666666666666667
6.498,3.0
6.5,0.6666666666666666
6.502,-5.0
6.5040000000000004,-3.6666666666666665
6.506,0.0
6.508,1.3333333333333333
6.51,-4.0
6.5120000000000005,-3.6666666666666665
6.514,-5.0
6.516,3.3333333333333335
6.518,20.666666666666668
6.5200000000000005,20.666666666666668
6.522,28.666666666666668
6.524,28.333333333333332
6.526,28.333333333333332
6.5280000000000005,46.333333333333336
6.53,60.333333333333336
6.532,67.0
6.534,72.0
6.5360000000000005,78.66666666666667
6.538,78.66666666666667
6.54,78.0
6.542,72.0
6.5440000000000005,64.33333333333333
6.546,56.666666666666664
6.548,38.333333333333336
6.55,18.666666666666668
6.5520000000000005,6.333333333333333
6.554,-0.3333333333333333
6.556,-6.666666666666667
6.558,-4.0
6.5600000000000005,8.333333333333334
6.562,4.333333333333333
6.564,8.666666666666666
6.566,2.3333333333333335
6.5680000000000005,-2.3333333333333335
6.57,5.333333333333333
6.572,1.3333333333333333
6.574,2.3333333333333335
6.5760000000000005,0.6666666666666666
6.578,-3.0
6.58,1.6666666666666667
6.582,4.666666666666667
6.5840000000000005,9.333333333333334
6.586,10.333333333333334
6.588,5.333333333333333
6.59,3.6666666666666665
6.5920000000000005,7.333333333333333
6.594,4.666666666666667
6.596,2.6666666666666665
6.598,1.0
6.6000000000000005,4.666666666666667
6.602,5.666666666666667
6.604,0.0
6.606,1.3333333333333333
6.6080000000000005,5.333333333333333
6.61,4.666666666666667
6.612,10.666666666666666
6.614,7.666666666666667
6.6160000000000005,3.0
6.618,4.333333333333333
6.62,7.0
6.622,3.3333333333333335
6.6240000000000006,-1.0
6.626,10.666666666666666
6.628,8.333333333333334
6.63,10.0
6.632000000000001,8.666666666666666
6.634,5.333333333333333
6.636,14.666666666666666
6.638,4.0
6.640000000000001,6.333333333333333
6.642,14.0
6.644,9.333333333333334
6.646,1.0
6.648000000000001,4.333333333333333
6.65,6.666666666666667
6.652,9.666666666666666
6.654,7.333333333333333
6.656000000000001,-1.6666666666666667
6.658,7.666666666666667
6.66,11.0
6.662,11.0
6.664,12.666666666666666
6.666,12.0
6.668,13.333333333333334
6.67,10.333333333333334
6.672,13.0
6.674,10.0
6.676,15.333333333333334
6.678,17.666666666666668
6.68,18.666666666666668
6.682,15.666666666666666
6.684,12.666666666666666
6.686,10.0
6.688,9.666666666666666
6.69,10.333333333333334
6.692,18.666666666666668
6.694,13.333333333333334
6.696,14.666666666666666
6.698,15.333333333333334
6.7,21.0
6.702,12.666666666666666
6.704,21.0
6.706,17.666666666666668
6.708,21.666666666666668
6.71,26.666666666666668
6.712,22.333333333333332
6.714,19.0
6.716,17.0
6.718,20.333333333333332
6.72,24.666666666666668
6.722,17.666666666666668
6.724,21.333333333333332
6.726,29.666666666666668
6.728,29.666666666666668
6.73,29.666666666666668
6.732,27.333333333333332
6.734,31.666666666666668
6.736,30.0
6.738,28.0
6.74,31.0
6.742,31.0
6.744,32.333333333333336
6.746,29.333333333333332
6.748,25.333333333333332
6.75,27.666666666666668
6.752,18.333333333333332
6.7540000000000004,26.333333333333332
6.756,28.666666666666668
6.758,28.666666666666668
6.76,34.0
6.7620000000000005,35.0
6.764,34.666666666666664
6.766,23.333333333333332
6.768,25.0
6.7700000000000005,30.333333333333332
6.772,28.333333333333332
6.774,19.666666666666668
6.776,20.333333333333332
6.7780000000000005,19.333333333333332
6.78,21.333333333333332
6.782,22.666666666666668
6.784,19.333333333333332
6.7860000000000005,19.666666666666668
6.788,20.0
6.79,20.0
6.792,17.0
6.7940000000000005,14.666666666666666
6.796,17.666666666666668
6.798,10.666666666666666
6.8,7.666666666666667
6.8020000000000005,16.666666666666668
6.804,13.666666666666666
6.806,7.666666666666667
6.808,8.0
6.8100000000000005,12.0
6.812,6.333333333333333
6.814,14.666666666666666
6.816,13.333333333333334
6.8180000000000005,9.666666666666666
6.82,8.666666666666666
6.822,11.666666666666666
6.824,14.0
6.8260000000000005,6.333333333333333
6.828,9.333333333333334
6.83,3.6666666666666665
6.832,11.333333333333334
6.8340000000000005,10.666666666666666
6.836,10.333333333333334
6.838,8.0
6.84,1.3333333333333333
6.8420000000000005,2.0
6.844,10.333333333333334
6.846,7.666666666666667
6.848,9.666666666666666
6.8500000000000005,5.333333333333333
6.852,9.666666666666666
6.854,8.333333333333334
6.856,13.333333333333334
6.8580000000000005,12.666666666666666
6.86,9.0
6.862,4.666666666666667
6.864,1.6666666666666667
6.8660000000000005,-1.0
6.868,10.333333333333334
6.87,10.666666666666666
6.872,12.666666666666666
6.8740000000000006,8.333333333333334
6.876,9.0
6.878,10.333333333333334
6.88,11.333333333333334
6.882000000000001,6.666666666666667
6.884,4.0
6.886,8.333333333333334
6.888,7.666666666666667
6.890000000000001,2.3333333333333335
6.892,3.0
6.894,13.333333333333334
6.896,8.333333333333334
6.898000000000001,10.0
6.9,10.333333333333334
6.902,8.333333333333334
6.904,9.333333333333334
6.906000000000001,7.666666666666667
6.908,11.333333333333334
6.91,12.333333333333334
6.912,8.0
6.914,9.0
6.916,5.0
6.918,6.666666666666667
6.92,16.666666666666668
6.922,3.6666666666666665
6.924,13.666666666666666
6.926,13.0
6.928,4.666666666666667
6.93,18.333333333333332
6.932,19.0
6.934,11.333333333333334
6.936,13.666666666666666
6.938,8.666666666666666
6.94,2.0
6.942,8.666666666666666
6.944,12.333333333333334
6.946,13.666666666666666
6.948,17.333333333333332
6.95,18.0
6.952,13.333333333333334
6.954,8.333333333333334
6.956,8.666666666666666
6.958,6.333333333333333
6.96,6.0
6.962,11.666666666666666
6.964,5.0
6.966,7.333333333333333
6.968,13.333333333333334
6.97,13.0
6.972,12.666666666666666
6.974,14.666666666666666
6.976,8.333333333333334
6.978,11.333333333333334
6.98,17.333333333333332
6.982,7.666666666666667
6.984,8.0
6.986,10.666666666666666
6.988,10.333333333333334
6.99,4.666666666666667
6.992,7.666666666666667
6.994,23.666666666666668
6.996,9.333333333333334
6.998,4.666666666666667
7.0,5.0
7.002,10.0
7.0040000000000004,13.0
7.006,11.666666666666666
7.008,8.0
7.01,8.333333333333334
7.0120000000000005,9.666666666666666
7.014,10.0
7.016,9.0
7.018,9.0
7.0200000000000005,9.0
7.022,10.0
7.024,6.333333333333333
7.026,8.666666666666666
7.0280000000000005,2.0
7.03,10.0
7.032,5.0
7.034,1.6666666666666667
7.0360000000000005,4.666666666666667
7.038,3.3333333333333335
7.04,12.666666666666666
7.042,11.333333333333334
7.0440000000000005,11.333333333333334
7.046,8.333333333333334
7.048,10.0
7.05,13.333333333333334
7.0520000000000005,11.333333333333334
7.054,5.666666666666667
7.056,9.0
7.058,7.666666666666667
7.0600000000000005,6.333333333333333
7.062,4.666666666666667
7.064,7.666666666666667
7.066,11.0
7.0680000000000005,10.333333333333334
7.07,11.666666666666666
7.072,14.666666666666666
7.074,13.333333333333334
7.0760000000000005,12.0
7.078,8.666666666666666
7.08,8.333333333333334
7.082,11.0
7.0840000000000005,10.0
7.086,3.0
7.088,9.333333333333334
7.09,6.333333333333333
7.0920000000000005,12.666666666666666
7.094,17.666666666666668
7.096,15.333333333333334
7.098,16.333333333333332
7.1000000000000005,17.333333333333332
7.102,13.333333333333334
7.104,9.0
7.106,11.0
7.1080000000000005,10.0
7.11,12.666666666666666
7.112,16.0
7.114,13.666666666666666
7.1160000000000005,14.0
7.118,7.333333333333333
7.12,9.0
7.122,17.666666666666668
7.1240000000000006,13.333333333333334
7.126,11.0
7.128,15.333333333333334
7.13,15.0
7.132000000000001,18.333333333333332
7.134,15.0
7.136,13.333333333333334
7.138,5.0
7.140000000000001,2.0
7.142,9.0
7.144,9.333333333333334
7.146,12.333333333333334
7.148000000000001,9.0
7.15,9.0
7.152,6.666666666666667
7.154,9.0
7.156000000000001,7.666666666666667
7.158,7.666666666666667
7.16,16.666666666666668
7.162,5.0
7.164000000000001,4.0
7.166,5.0
7.168,9.666666666666666
7.17,16.0
7.172,8.0
7.174,11.666666666666666
7.176,14.0
7.178,11.333333333333334
7.18,9.333333333333334
7.182,7.333333333333333
7.184,8.333333333333334
7.186,10.666666666666666
7.188,9.0
7.19,4.333333333333333
7.192,9.333333333333334
7.194,7.666666666666667
7.196,4.0
7.198,15.333333333333334
7.2,15.333333333333334
7.202,9.333333333333334
7.204,3.0
7.206,13.0
7.208,14.666666666666666
7.21,14.333333333333334
7.212,21.0
7.214,26.0
7.216,38.666666666666664
7.218,48.0
7.22,51.333333333333336
7.222,59.666666666666664
7.224,80.66666666666667
7.226,90.0
7.228,89.0
7.23,91.66666666666667
7.232,87.0
7.234,92.33333333333333
7.236,87.33333333333333
7.238,76.0
7.24,56.0
7.242,42.0
7.244,23.333333333333332
7.246,12.666666666666666
7.248,11.666666666666666
7.25,8.0
7.252,7.333333333333333
7.2540000000000004,8.0
7.256,2.0
7.258,16.666666666666668
7.26,19.0
7.2620000000000005,20.333333333333332
7.264,16.0
7.266,13.666666666666666
7.268,13.333333333333334
7.2700000000000005,17.0
7.272,13.333333333333334
7.274,5.666666666666667
7.276,11.666666666666666
7.2780000000000005,12.0
7.28,14.666666666666666
7.282,12.666666666666666
7.284,10.666666666666666
7.2860000000000005,11.333333333333334
7.288,11.666666666666666
7.29,9.666666666666666
7.292,7.666666666666667
7.2940000000000005,9.666666666666666
7.296,17.0
7.298,19.333333333333332
7.3,17.333333333333332
7.3020000000000005,14.666666666666666
7.304,7.666666666666667
7.306,0.3333333333333333
7.308,12.666666666666666
7.3100000000000005,17.333333333333332
7.312,13.333333333333334
7.314,16.333333333333332
7.316,16.666666666666668
7.3180000000000005,15.333333333333334
7.32,5.0
7.322,13.666666666666666
7.324,16.333333333333332
7.3260000000000005,18.666666666666668
7.328,21.333333333333332
7.33,18.333333333333332
7.332,17.0
7.3340000000000005,16.666666666666668
7.336,18.666666666666668
7.338,16.0
7.34,14.666666666666666
7.3420000000000005,16.0
7.344,10.333333333333334
7.346,13.333333333333334
7.348,18.333333333333332
7.3500000000000005,17.666666666666668
7.352,13.333333333333334
7.354,11.666666666666666
7.356,8.333333333333334
7.3580000000000005,13.333333333333334
7.36,18.333333333333332
7.362,22.333333333333332
7.364,18.333333333333332
7.3660000000000005,16.333333333333332
7.368,23.666666666666668
7.37,20.333333333333332
7.372,18.333333333333332
7.3740000000000006,19.0
7.376,13.666666666666666
7.378,20.0
7.38,18.666666666666668
7.382000000000001,17.666666666666668
7.384,20.333333333333332
7.386,20.666666666666668
7.388,21.0
7.390000000000001,20.333333333333332
7.392,27.333333333333332
7.394,27.333333333333332
7.396,27.333333333333332
7.398000000000001,25.666666666666668
7.4,29.666666666666668
7.402,25.333333333333332
7.404,25.666666666666668
7.406000000000001,26.666666666666668
7.408,19.666666666666668
7.41,30.0
7.412,28.333333333333332
7.414000000000001,27.666666666666668
7.416,27.0
7.418,29.666666666666668
7.42,28.333333333333332
7.422000000000001,23.333333333333332
7.424,29.0
7.426,32.333333333333336
7.428,36.333333333333336
7.43,34.666666666666664
7.432,33.666666666666664
7.434,30.333333333333332
7.436,34.333333333333336
7.438,35.666666666666664
7.44,35.666666666666664
7.442,34.333333333333336
7.444,36.666666666666664
7.446,37.333333333333336
7.448,33.333333333333336
7.45,30.666666666666668
7.452,23.333333333333332
7.454,35.666666666666664
7.456,27.333333333333332
7.458,28.333333333333332
7.46,34.333333333333336
7.462,30.0
7.464,34.333333333333336
7.466,32.333333333333336
7.468,29.666666666666668
7.47,26.0
7.472,31.666666666666668
7.474,25.0
7.476,23.333333333333332
7.478,24.0
7.48,18.666666666666668
7.482,20.666666666666668
7.484,18.0
7.486,19.666666666666668
7.488,21.0
7.49,18.0
7.492,15.666666666666666
7.494,19.333333333333332
7.496,18.666666666666668
7.498,8.0
7.5,12.333333333333334
7.502,14.0
7.5040000000000004,19.666666666666668
7.506,20.0
7.508,17.333333333333332
7.51,15.333333333333334
7.5120000000000005,16.333333333333332
7.514,21.666666666666668
7.516,8.0
7.518,5.666666666666667
7.5200000000000005,8.666666666666666
7.522,17.666666666666668
7.524,8.333333333333334
7.526,2.0
7.5280000000000005,14.333333333333334
7.53,15.333333333333334
7.532,17.0
7.534,20.0
7.5360000000000005,12.0
7.538,18.666666666666668
7.54,14.333333333333334
7.542,10.333333333333334
7.5440000000000005,7.333333333333333
7.546,4.666666666666667
7.548,7.666666666666667
7.55,6.666666666666667
7.5520000000000005,16.0
7.554,10.666666666666666
7.556,13.0
7.558,12.0
7.5600000000000005,10.333333333333334
7.562,10.666666666666666
7.564,9.666666666666666
7.566,8.0
7.5680000000000005,14.666666666666666
7.57,8.666666666666666
7.572,13.333333333333334
7.574,12.0
7.5760000000000005,7.0
7.578,10.0
7.58,12.333333333333334
7.582,13.666666666666666
7.5840000000000005,11.0
7.586,6.666666666666667
7.588,13.0
7.59,18.666666666666668
7.5920000000000005,15.666666666666666
7.594,17.333333333333332
7.596,11.666666666666666
7.598,8.0
7.6000000000000005,9.666666666666666
7.602,10.666666666666666
7.604,4.0
7.606,14.0
7.6080000000000005,12.333333333333334
7.61,15.666666666666666
7.612,14.333333333333334
7.614,21.0
7.6160000000000005,15.333333333333334
7.618,9.333333333333334
7.62,12.333333333333334
7.622,9.0
7.6240000000000006,8.666666666666666
7.626,11.0
7.628,14.333333333333334
7.63,9.333333333333334
7.632000000000001,8.666666666666666
7.634,11.0
7.636,16.0
7.638,17.0
7.640000000000001,19.333333333333332
7.642,15.333333333333334
7.644,12.0
7.646,11.0
7.648000000000001,15.0
7.65,15.333333333333334
7.652,17.666666666666668
7.654,11.0
7.656000000000001,15.333333333333334
7.658,16.0
7.66,21.0
7.662,15.333333333333334
7.664000000000001,5.666666666666667
7.666,10.333333333333334
7.668,12.666666666666666
7.67,10.0
7.672000000000001,-2.3333333333333335
7.674,9.0
7.676,17.333333333333332
7.678,18.0
7.68,9.666666666666666
7.682,10.333333333333334
7.684,9.333333333333334
7.686,11.333333333333334
7.688,13.333333333333334
7.69,15.666666666666666
7.692,15.333333333333334
7.694,12.666666666666666
7.696,9.0
7.698,8.666666666666666
7.7,12.333333333333334
7.702,13.666666666666666
7.704,7.333333333333333
7.706,6.333333333333333
7.708,5.333333333333333
7.71,12.666666666666666
7.712,15.666666666666666
7.714,22.0
7.716,15.666666666666666
7.718,11.333333333333334
7.72,13.333333333333334
7.722,2.0
7.724,12.333333333333334
7.726,17.666666666666668
7.728,12.666666666666666
7.73,13.0
7.732,14.333333333333334
7.734,16.666666666666668
7.736,10.666666666666666
7.738,11.0
7.74,9.333333333333334
7.742,8.333333333333334
7.744,12.333333333333334
7.746,7.0
7.748,8.666666666666666
7.75,19.333333333333332
7.752,18.333333333333332
7.7540000000000004,10.0
7.756,16.0
7.758,10.333333333333334
7.76,9.666666666666666
7.7620000000000005,12.333333333333334
7.764,7.333333333333333
7.766,4.666666666666667
7.768,13.0
7.7700000000000005,17.333333333333332
7.772,10.666666666666666
7.774,9.666666666666666
7.776,9.666666666666666
7.7780000000000005,6.666666666666667
7.78,9.333333333333334
7.782,11.666666666666666
7.784,9.333333333333334
7.7860000000000005,12.333333333333334
7.788,10.666666666666666
7.79,13.666666666666666
7.792,15.0
7.7940000000000005,10.666666666666666
7.796,13.333333333333334
7.798,10.0
7.8,4.666666666666667
7.8020000000000005,10.0
7.804,10.333333333333334
7.806,10.0
7.808,10.333333333333334
7.8100000000000005,13.333333333333334
7.812,12.333333333333334
7.814,13.666666666666666
7.816,14.0
7.8180000000000005,16.0
7.82,17.333333333333332
7.822,17.0
7.824,14.333333333333334
7.8260000000000005,10.666666666666666
7.828,7.0
7.83,16.0
7.832,14.333333333333334
7.8340000000000005,10.0
7.836,10.666666666666666
7.838,12.333333333333334
7.84,12.666666666666666
7.8420000000000005,16.333333333333332
7.844,7.0
7.846,1.6666666666666667
7.848,13.333333333333334
7.8500000000000005,15.333333333333334
7.852,12.0
7.854,13.666666666666666
7.856,15.0
7.8580000000000005,16.666666666666668
7.86,14.333333333333334
7.862,15.666666666666666
7.864,9.0
7.8660000000000005,8.0
7.868,4.666666666666667
7.87,4.333333333333333
7.872,16.333333333333332
7.8740000000000006,9.666666666666666
7.876,8.333333333333334
7.878,11.0
7.88,15.666666666666666
7.882000000000001,14.333333333333334
7.884,12.0
7.886,8.333333333333334
7.888,16.333333333333332
7.890000000000001,18.333333333333332
7.892,20.333333333333332
7.894,13.0
7.896,9.333333333333334
7.898000000000001,10.0
7.9,15.666666666666666
7.902,17.666666666666668
7.904,13.0
7.906000000000001,10.666666666666666
7.908,12.666666666666666
7.91,10.333333333333334
7.912,10.0
7.914000000000001,0.0
7.916,5.0
7.918,8.666666666666666
7.92,17.0
7.922000000000001,14.333333333333334
7.924,12.0
7.926,19.333333333333332
7.928,18.333333333333332
7.930000000000001,16.666666666666668
7.932,15.0
7.934,8.333333333333334
7.936,6.0
7.938,8.0
7.94,10.666666666666666
7.942,12.333333333333334
7.944,8.333333333333334
7.946,12.0
7.948,19.0
7.95,14.0
7.952,14.0
7.954,16.666666666666668
7.956,11.666666666666666
7.958,14.333333333333334
7.96,12.0
7.962,6.0
7.964,13.0
7.966,17.333333333333332
7.968,6.333333333333333
7.97,14.0
7.972,20.333333333333332
7.974,15.333333333333334
7.976,14.666666666666666
7.978,13.666666666666666
7.98,10.666666666666666
7.982,7.333333333333333
7.984,10.666666666666666
7.986,14.0
7.988,10.666666666666666
7.99,15.666666666666666
7.992,13.666666666666666
7.994,8.666666666666666
7.996,15.333333333333334
7.998,14.333333333333334
8.0,14.0
8.002,9.333333333333334
8.004,14.0
8.006,10.666666666666666
8.008000000000001,2.3333333333333335
8.01,9.666666666666666
8.012,14.333333333333334
8.014,19.333333333333332
8.016,20.333333333333332
8.018,15.0
8.02,10.666666666666666
8.022,13.0
8.024000000000001,12.0
8.026,15.0
8.028,13.0
8.03,15.0
8.032,14.666666666666666
8.034,13.666666666666666
8.036,13.666666666666666
8.038,10.666666666666666
8.040000000000001,9.333333333333334
8.042,4.0
8.044,12.333333333333334
8.046,18.333333333333332
8.048,18.333333333333332
8.05,14.333333333333334
8.052,14.333333333333334
8.054,19.0
8.056000000000001,16.0
8.058,12.0
8.06,7.0
8.062,6.0
8.064,9.666666666666666
8.066,8.666666666666666
8.068,6.333333333333333
8.07,13.0
8.072000000000001,23.666666666666668
8.074,21.333333333333332
8.076,23.333333333333332
8.078,13.333333333333334
8.08,10.666666666666666
8.082,14.666666666666666
8.084,11.666666666666666
8.086,12.666666666666666
8.088000000000001,12.0
8.09,11.333333333333334
8.092,12.0
8.094,11.666666666666666
8.096,8.333333333333334
8.098,15.333333333333334
8.1,22.333333333333332
8.102,23.0
8.104000000000001,23.0
8.106,18.333333333333332
8.108,13.666666666666666
8.11,14.666666666666666
8.112,14.666666666666666
8.114,18.0
8.116,17.0
8.118,16.666666666666668
8.120000000000001,12.333333333333334
8.122,11.333333333333334
8.124,14.0
8.126,17.666666666666668
8.128,18.0
8.13,15.0
8.132,18.333333333333332
8.134,20.666666666666668
8.136000000000001,14.333333333333334
8.138,12.333333333333334
8.14,11.0
8.142,15.0
8.144,10.666666666666666
8.146,14.333333333333334
8.148,15.666666666666666
8.15,13.333333333333334
8.152000000000001,15.0
8.154,14.0
8.156,9.0
8.158,12.0
8.16,9.0
8.162,20.666666666666668
8.164,16.333333333333332
8.166,13.666666666666666
8.168000000000001,13.333333333333334
8.17,12.0
8.172,7.333333333333333
8.174,6.333333333333333
8.176,9.0
8.178,12.666666666666666
8.18,22.666666666666668
8.182,15.333333333333334
8.184000000000001,21.0
8.186,16.666666666666668
8.188,7.666666666666667
8.19,10.333333333333334
8.192,8.333333333333334
8.194,8.333333333333334
8.196,6.666666666666667
8.198,13.0
8.2,8.666666666666666
8.202,4.333333333333333
8.204,4.333333333333333
8.206,10.666666666666666
8.208,20.666666666666668
8.21,20.0
8.212,20.333333333333332
8.214,31.666666666666668
8.216,40.333333333333336
8.218,41.0
8.22,47.666666666666664
8.222,60.0
8.224,77.33333333333333
8.226,88.66666666666667
8.228,99.33333333333333
8.23,93.66666666666667
8.232,96.0
8.234,98.33333333333333
8.236,95.66666666666667
8.238,86.0
8.24,73.33333333333333
8.242,55.333333333333336
8.244,41.0
8.246,24.333333333333332
8.248,15.0
8.25,8.0
8.252,3.3333333333333335
8.254,13.0
8.256,18.333333333333332
8.258000000000001,18.0
8.26,20.333333333333332
8.262,22.666666666666668
8.264,19.666666666666668
8.266,14.0
8.268,12.333333333333334
8.27,14.333333333333334
8.272,17.666666666666668
8.274000000000001,12.666666666666666
8.276,10.0
8.278,11.666666666666666
8.28,19.666666666666668
8.282,20.0
8.284,18.666666666666668
8.286,17.333333333333332
8.288,12.666666666666666
8.290000000000001,10.0
8.292,14.666666666666666
8.294,9.0
8.296,11.0
8.298,13.666666666666666
8.3,16.0
8.302,8.0
8.304,-3.3333333333333335
8.306000000000001,15.333333333333334
8.308,22.666666666666668
8.31,19.333333333333332
8.312,17.0
8.314,15.666666666666666
8.316,18.333333333333332
8.318,19.666666666666668
8.32,15.0
8.322000000000001,17.333333333333332
8.324,14.0
8.326,14.0
8.328,16.666666666666668
8.33,12.333333333333334
8.332,13.0
8.334,16.666666666666668
8.336,18.666666666666668
8.338000000000001,16.333333333333332
8.34,15.0
8.342,18.0
8.344,17.666666666666668
8.346,17.0
8.348,8.0
8.35,5.0
8.352,19.0
8.354000000000001,28.0
8.356,17.0
8.358,16.333333333333332
8.36,20.666666666666668
8.362,24.666666666666668
8.364,19.666666666666668
8.366,18.666666666666668
8.368,17.0
8.370000000000001,19.333333333333332
8.372,21.0
8.374,24.666666666666668
8.376,21.0
8.378,24.333333333333332
8.38,19.0
8.382,22.0
8.384,21.0
8.386000000000001,18.333333333333332
8.388,20.333333333333332
8.39,23.333333333333332
8.392,17.0
8.394,14.333333333333334
8.396,22.0
8.398,25.666666666666668
8.4,29.0
8.402000000000001,27.0
8.404,20.0
8.406,29.333333333333332
8.408,33.333333333333336
8.41,33.0
8.412,30.333333333333332
8.414,33.666666666666664
8.416,25.333333333333332
8.418000000000001,22.0
8.42,30.333333333333332
8.422,32.666666666666664
8.424,30.666666666666668
8.426,33.333333333333336
8.428,32.333333333333336
8.43,31.333333333333332
8.432,28.666666666666668
8.434000000000001,26.333333333333332
8.436,24.666666666666668
8.438,37.333333333333336
8.44,38.333333333333336
8.442,33.0
8.444,34.0
8.446,35.333333333333336
8.448,34.0
8.45,31.666666666666668
8.452,31.666666666666668
8.454,25.0
8.456,32.333333333333336
8.458,31.666666666666668
8.46,29.333333333333332
8.462,32.0
8.464,36.0
8.466,33.333333333333336
8.468,34.666666666666664
8.47,34.666666666666664
8.472,29.666666666666668
8.474,28.333333333333332
8.476,27.0
8.478,26.666666666666668
8.48,24.333333333333332
8.482,22.333333333333332
8.484,19.333333333333332
8.486,24.333333333333332
8.488,26.666666666666668
8.49,25.333333333333332
8.492,28.333333333333332
8.494,24.333333333333332
8.496,24.333333333333332
8.498,24.333333333333332
8.5,19.333333333333332
8.502,15.666666666666666
8.504,16.0
8.506,20.666666666666668
8.508000000000001,28.333333333333332
8.51,28.333333333333332
8.512,17.0
8.514,17.333333333333332
8.516,22.666666666666668
8.518,11.666666666666666
8.52,10.0
8.522,16.333333333333332
8.524000000000001,13.666666666666666
8.526,12.333333333333334
8.528,8.333333333333334
8.53,16.666666666666668
8.532,16.666666666666668
8.534,6.333333333333333
8.536,11.0
8.538,15.0
8.540000000000001,15.0
8.542,14.0
8.544,15.0
8.546,18.0
8.548,16.666666666666668
8.55,18.333333333333332
8.552,15.0
8.554,12.666666666666666
8.556000000000001,11.666666666666666
8.558,9.333333333333334
8.56,4.333333333333333
8.562,10.333333333333334
8.564,14.666666666666666
8.566,12.333333333333334
8.568,17.333333333333332
8.57,18.333333333333332
8.572000000000001,16.666666666666668
8.574,15.0
8.576,14.0
8.578,20.333333333333332
8.58,16.666666666666668
8.582,14.333333333333334
8.584,15.666666666666666
8.586,15.0
8.588000000000001,16.666666666666668
8.59,17.333333333333332
8.592,9.333333333333334
8.594,9.333333333333334
8.596,16.666666666666668
8.598,12.333333333333334
8.6,13.333333333333334
8.602,15.333333333333334
8.604000000000001,15.0
8.606,16.333333333333332
8.608,14.333333333333334
8.61,13.0
8.612,13.333333333333334
8.614,19.0
8.616,25.333333333333332
8.618,18.666666666666668
8.620000000000001,15.333333333333334
8.622,12.333333333333334
8.624,13.666666666666666
8.626,13.666666666666666
8.628,13.0
8.63,11.666666666666666
8.632,14.333333333333334
8.634,16.333333333333332
8.636000000000001,13.666666666666666
8.638,9.333333333333334
8.64,12.0
8.642,17.333333333333332
8.644,23.666666666666668
8.646,21.0
8.648,15.666666666666666
8.65,18.0
8.652000000000001,15.333333333333334
8.654,15.0
8.656,13.333333333333334
8.658,16.333333333333332
8.66,14.0
8.662,11.666666666666666
8.664,14.0
8.666,8.0
8.668000000000001,9.0
8.67,18.0
8.672,11.333333333333334
8.674,9.666666666666666
8.676,14.666666666666666
8.678,16.333333333333332
8.68,19.666666666666668
8.682,20.333333333333332
8.684000000000001,19.333333333333332
8.686,16.666666666666668
8.688,16.333333333333332
8.69,16.333333333333332
8.692,13.666666666666666
8.694,11.666666666666666
8.696,13.666666666666666
8.698,15.0
8.700000000000001,14.0
8.702,17.666666666666668
8.704,12.333333333333334
8.706,12.666666666666666
8.708,11.333333333333334
8.71,15.666666666666666
8.712,16.666666666666668
8.714,13.666666666666666
8.716,16.333333333333332
8.718,7.333333333333333
8.72,9.333333333333334
8.722,16.333333333333332
8.724,12.666666666666666
8.726,8.666666666666666
8.728,12.666666666666666
8.73,24.333333333333332
8.732,22.666666666666668
8.734,14.333333333333334
8.736,11.666666666666666
8.738,12.666666666666666
8.74,12.666666666666666
8.742,14.666666666666666
8.744,18.666666666666668
8.746,16.333333333333332
8.748,12.333333333333334
8.75,18.666666666666668
8.752,17.333333333333332
8.754,12.333333333333334
8.756,12.333333333333334
8.758000000000001,17.333333333333332
8.76,11.333333333333334
8.762,7.333333333333333
8.764,7.0
8.766,10.333333333333334
8.768,14.0
8.77,12.333333333333334
8.772,8.333333333333334
8.774000000000001,14.0
8.776,20.0
8.778,15.333333333333334
8.78,17.333333333333332
8.782,12.333333333333334
8.784,19.333333333333332
8.786,17.0
8.788,15.333333333333334
8.790000000000001,16.0
8.792,12.333333333333334
8.794,9.333333333333334
8.796,11.0
8.798,11.666666666666666
8.8,15.666666666666666
8.802,17.333333333333332
8.804,15.333333333333334
8.806000000000001,10.0
8.808,13.0
8.81,11.333333333333334
8.812,4.666666666666667
8.814,5.333333333333333
8.816,19.333333333333332
8.818,23.666666666666668
8.82,18.333333333333332
8.822000000000001,10.333333333333334
8.824,11.666666666666666
8.826,18.333333333333332
8.828,17.666666666666668
8.83,13.0
8.832,12.666666666666666
8.834,6.666666666666667
8.836,9.666666666666666
8.838000000000001,19.333333333333332
8.84,17.333333333333332
8.842,16.666666666666668
8.844,14.0
8.846,11.0
8.848,15.0
8.85,8.666666666666666
8.852,9.666666666666666
8.854000000000001,12.666666666666666
8.856,11.333333333333334
8.858,18.0
8.86,20.0
8.862,16.0
8.864,15.0
8.866,9.666666666666666
8.868,8.333333333333334
8.870000000000001,14.333333333333334
8.872,8.0
8.874,5.333333333333333
8.876,13.666666666666666
8.878,14.333333333333334
8.88,18.666666666666668
8.882,20.666666666666668
8.884,14.666666666666666
8.886000000000001,15.333333333333334
8.888,17.0
8.89,12.333333333333334
8.892,15.0
8.894,13.333333333333334
8.896,13.666666666666666
8.898,15.666666666666666
8.9,13.0
8.902000000000001,12.666666666666666
8.904,14.0
8.906,13.0
8.908,19.0
8.91,19.666666666666668
8.912,13.0
8.914,10.0
8.916,13.666666666666666
8.918000000000001,16.666666666666668
8.92,21.333333333333332
8.922,8.0
8.924,3.3333333333333335
8.926,19.666666666666668
8.928,26.666666666666668
8.93,26.0
8.932,22.0
8.934000000000001,11.666666666666666
8.936,16.666666666666668
8.938,20.333333333333332
8.94,16.666666666666668
8.942,19.0
8.944,17.333333333333332
8.946,19.0
8.948,18.0
8.950000000000001,16.666666666666668
8.952,12.0
8.954,16.333333333333332
8.956,17.666666666666668
8.958,17.0
8.96,16.0
8.962,16.0
8.964,17.666666666666668
8.966,19.0
8.968,14.0
8.97,12.333333333333334
8.972,18.333333333333332
8.974,17.0
8.976,22.666666666666668
8.978,22.333333333333332
8.98,20.666666666666668
8.982,11.666666666666666
8.984,10.0
8.986,10.0
8.988,15.0
8.99,9.333333333333334
8.992,13.666666666666666
8.994,13.333333333333334
8.996,11.666666666666666
8.998,15.666666666666666
9.0,15.666666666666666
9.002,16.333333333333332
9.004,10.666666666666666
9.006,10.666666666666666
9.008000000000001,6.666666666666667
9.01,6.333333333333333
9.012,13.0
9.014,14.666666666666666
9.016,10.333333333333334
9.018,13.666666666666666
9.02,12.0
9.022,8.333333333333334
9.024000000000001,9.333333333333334
9.026,14.333333333333334
9.028,14.666666666666666
9.03,15.666666666666666
9.032,11.666666666666666
9.034,10.0
9.036,8.333333333333334
9.038,10.666666666666666
9.040000000000001,20.666666666666668
9.042,31.0
9.044,37.333333333333336
9.046,45.333333333333336
9.048,53.0
9.05,68.66666666666667
9.052,77.66666666666667
9.054,91.33333333333333
9.056000000000001,92.66666666666667
9.058,85.66666666666667
9.06,94.33333333333333
9.062,90.0
9.064,86.66666666666667
9.066,79.33333333333333
9.068,69.66666666666667
9.07,51.666666666666664
9.072000000000001,30.0
9.074,23.0
9.076,19.0
9.078,14.333333333333334
9.08,14.666666666666666
9.082,8.0
9.084,13.666666666666666
9.086,13.333333333333334
9.088000000000001,20.0
9.09,16.666666666666668
9.092,18.333333333333332
9.094,20.0
9.096,15.333333333333334
9.098,18.0
9.1,16.333333333333332
9.102,16.333333333333332
9.104000000000001,15.0
9.106,17.666666666666668
9.108,19.666666666666668
9.11,12.333333333333334
9.112,5.0
9.114,16.333333333333332
9.116,10.666666666666666
9.118,10.666666666666666
9.120000000000001,12.666666666666666
9.122,9.666666666666666
9.124,8.0
9.126,18.666666666666668
9.128,19.333333333333332
9.13,16.0
9.132,22.666666666666668
9.134,23.333333333333332
9.136000000000001,18.333333333333332
9.138,18.333333333333332
9.14,12.666666666666666
9.142,13.333333333333334
9.144,13.0
9.146,16.666666666666668
9.148,15.666666666666666
9.15,14.333333333333334
9.152000000000001,14.0
9.154,15.0
9.156,15.333333333333334
9.158,14.0
9.16,15.666666666666666
9.162,16.333333333333332
9.164,17.333333333333332
9.166,15.666666666666666
9.168000000000001,12.0
9.17,19.0
9.172,20.0
9.174,20.0
9.176,17.333333333333332
9.178,22.666666666666668
9.18,17.0
9.182,18.0
9.184000000000001,20.333333333333332
9.186,21.0
9.188,22.666666666666668
9.19,21.333333333333332
9.192,22.0
9.194,16.666666666666668
9.196,17.666666666666668
9.198,22.0
9.200000000000001,19.333333333333332
9.202,17.333333333333332
9.204,16.666666666666668
9.206,17.0
9.208,20.0
9.21,23.333333333333332
9.212,23.0
9.214,27.0
9.216000000000001,25.0
9.218,22.0
9.22,25.333333333333332
9.222,26.666666666666668
9.224,27.666666666666668
9.226,32.0
9.228,29.666666666666668
9.23,25.666666666666668
9.232,26.666666666666668
9.234,28.666666666666668
9.236,30.333333333333332
9.238,31.666666666666668
9.24,35.666666666666664
9.242,35.333333333333336
9.244,30.666666666666668
9.246,30.666666666666668
9.248,32.333333333333336
9.25,30.666666666666668
9.252,30.0
9.254,30.666666666666668
9.256,39.666666666666664
9.258000000000001,35.333333333333336
9.26,34.0
9.262,37.666666666666664
9.264,39.0
9.266,35.333333333333336
9.268,34.666666666666664
9.27,32.333333333333336
9.272,35.0
9.274000000000001,36.333333333333336
9.276,33.333333333333336
9.278,38.666666666666664
9.28,38.0
9.282,29.333333333333332
9.284,27.0
9.286,27.666666666666668
9.288,30.333333333333332
9.290000000000001,32.0
9.292,32.333333333333336
9.294,34.0
9.296,32.333333333333336
9.298,25.333333333333332
9.3,24.333333333333332
9.302,36.0
9.304,32.0
9.306000000000001,33.666666666666664
9.308,39.333333333333336
9.31,32.666666666666664
9.312,30.666666666666668
9.314,22.333333333333332
9.316,14.666666666666666
9.318,22.333333333333332
9.32,27.333333333333332
9.322000000000001,27.666666666666668
9.324,26.0
9.326,22.333333333333332
9.328,17.0
9.33,19.0
9.332,19.666666666666668
9.334,18.666666666666668
9.336,20.666666666666668
9.338000000000001,18.333333333333332
9.34,15.333333333333334
9.342,11.666666666666666
9.344,18.333333333333332
9.346,18.666666666666668
9.348,18.0
9.35,17.666666666666668
9.352,20.666666666666668
9.354000000000001,19.333333333333332
9.356,12.0
9.358,14.666666666666666
9.36,15.666666666666666
9.362,13.666666666666666
9.364,8.666666666666666
9.366,8.0
9.368,9.333333333333334
9.370000000000001,13.333333333333334
9.372,10.333333333333334
9.374,12.333333333333334
9.376,12.666666666666666
9.378,13.333333333333334
9.38,14.666666666666666
9.382,22.0
9.384,14.0
9.386000000000001,11.0
9.388,12.0
9.39,14.333333333333334
9.392,25.333333333333332
9.394,14.0
9.396,13.666666666666666
9.398,14.0
9.4,14.0
9.402000000000001,10.666666666666666
9.404,9.333333333333334
9.406,13.0
9.408,12.666666666666666
9.41,12.333333333333334
9.412,12.333333333333334
9.414,8.0
9.416,11.666666666666666
9.418000000000001,18.666666666666668
9.42,14.666666666666666
9.422,6.333333333333333
9.424,13.333333333333334
9.426,15.666666666666666
9.428,12.666666666666666
9.43,16.333333333333332
9.432,18.666666666666668
9.434000000000001,19.0
9.436,15.0
9.438,15.666666666666666
9.44,9.666666666666666
9.442,7.333333333333333
9.444,12.333333333333334
9.446,15.666666666666666
9.448,15.666666666666666
9.450000000000001,12.666666666666666
9.452,13.0
9.454,11.333333333333334
9.456,14.0
9.458,16.333333333333332
9.46,21.333333333333332
9.462,20.666666666666668
9.464,15.333333333333334
9.466000000000001,18.0
9.468,14.333333333333334
9.47,8.666666666666666
9.472,16.666666666666668
9.474,11.666666666666666
9.476,13.333333333333334
9.478,15.333333333333334
9.48,14.666666666666666
9.482,17.333333333333332
9.484,15.333333333333334
9.486,9.666666666666666
9.488,13.666666666666666
9.49,14.0
9.492,13.666666666666666
9.494,12.0
9.496,11.666666666666666
9.498,15.333333333333334
9.5,15.0
9.502,17.0
9.504,19.666666666666668
9.506,16.666666666666668
9.508000000000001,14.666666666666666
9.51,11.333333333333334
9.512,11.333333333333334
9.514,10.333333333333334
9.516,11.666666666666666
9.518,14.333333333333334
9.52,13.333333333333334
9.522,7.666666666666667
9.524000000000001,12.666666666666666
9.526,15.333333333333334
9.528,17.666666666666668
9.53,16.666666666666668
9.532,15.0
9.534,15.0
9.536,10.666666666666666
9.538,10.0
9.540000000000001,17.333333333333332
9.542,14.0
9.544,11.666666666666666
9.546,11.333333333333334
9.548,14.0
9.55,10.0
9.552,6.666666666666667
9.554,15.333333333333334
9.556000000000001,18.333333333333332
9.558,12.666666666666666
9.56,11.666666666666666
9.562,14.666666666666666
9.564,13.666666666666666
9.566,9.666666666666666
9.568,21.333333333333332
9.57,9.666666666666666
9.572000000000001,10.0
9.574,13.666666666666666
9.576,14.0
9.578,15.666666666666666
9.58,12.666666666666666
9.582,7.333333333333333
9.584,6.333333333333333
9.586,12.666666666666666
9.588000000000001,13.333333333333334
9.59,12.0
9.592,18.0
9.594,14.333333333333334
9.596,10.0
9.598,8.0
9.6,12.666666666666666
9.602,17.0
9.604000000000001,13.333333333333334
9.606,7.333333333333333
9.608,14.333333333333334
9.61,13.0
9.612,9.0
9.614,5.333333333333333
9.616,13.0
9.618,13.333333333333334
9.620000000000001,13.666666666666666
9.622,16.0
9.624,13.666666666666666
9.626,12.0
9.628,15.0
9.63,13.0
9.632,16.333333333333332
9.634,11.0
9.636000000000001,8.666666666666666
9.638,11.666666666666666
9.64,7.0
9.642,5.0
9.644,10.0
9.646,9.666666666666666
9.648,11.333333333333334
9.65,11.666666666666666
9.652000000000001,8.0
9.654,12.333333333333334
9.656,18.0
9.658,16.333333333333332
9.66,16.666666666666668
9.662,11.0
9.664,14.333333333333334
9.666,15.666666666666666
9.668000000000001,16.0
9.67,9.666666666666666
9.672,12.333333333333334
9.674,8.0
9.676,11.333333333333334
9.678,10.0
9.68,10.0
9.682,12.0
9.684000000000001,12.333333333333334
9.686,14.333333333333334
9.688,10.0
9.69,3.0
9.692,8.333333333333334
9.694,13.333333333333334
9.696,12.333333333333334
9.698,19.666666666666668
9.700000000000001,12.0
9.702,12.333333333333334
9.704,11.333333333333334
9.706,15.333333333333334
9.708,14.666666666666666
9.71,12.0
9.712,15.666666666666666
9.714,13.333333333333334
9.716000000000001,15.666666666666666
9.718,14.0
9.72,17.0
9.722,21.333333333333332
9.724,17.0
9.726,17.333333333333332
9.728,16.333333333333332
9.73,13.333333333333334
9.732,12.333333333333334
9.734,14.333333333333334
9.736,12.333333333333334
9.738,15.333333333333334
9.74,19.333333333333332
9.742,19.333333333333332
9.744,12.666666666666666
9.746,11.666666666666666
9.748,18.666666666666668
9.75,17.333333333333332
9.752,15.666666666666666
9.754,14.333333333333334
9.756,7.0
9.758000000000001,20.0
9.76,14.333333333333334
9.762,17.0
9.764,9.333333333333334
9.766,7.666666666666667
9.768,12.0
9.77,6.666666666666667
9.772,8.0
9.774000000000001,12.666666666666666
9.776,8.0
9.778,8.333333333333334
9.78,5.666666666666667
9.782,5.333333333333333
9.784,10.666666666666666
9.786,7.333333333333333
9.788,11.0
9.790000000000001,11.333333333333334
9.792,10.0
9.794,12.0
9.796,12.666666666666666
9.798,8.0
9.8,8.666666666666666
9.802,8.666666666666666
9.804,4.333333333333333
9.806000000000001,8.666666666666666
9.808,8.0
9.81,9.666666666666666
9.812,15.666666666666666
9.814,13.0
9.816,11.333333333333334
9.818,6.333333333333333
9.82,10.666666666666666
9.822000000000001,6.666666666666667
9.824,7.666666666666667
9.826,9.666666666666666
9.828,14.0
9.83,11.666666666666666
9.832,23.0
9.834,33.666666666666664
9.836,42.666666666666664
9.838000000000001,44.333333333333336
9.84,52.0
9.842,65.66666666666667
9.844,81.66666666666667
9.846,85.66666666666667
9.848,83.33333333333333
9.85,82.0
9.852,84.33333333333333
9.854000000000001,86.33333333333333
9.856,78.33333333333333
9.858,71.66666666666667
9.86,51.666666666666664
9.862,40.0
9.864,23.0
9.866,13.666666666666666
9.868,12.0
9.870000000000001,6.666666666666667
9.872,11.666666666666666
9.874,9.333333333333334
9.876,12.666666666666666
9.878,13.666666666666666
9.88,13.0
9.882,12.333333333333334
9.884,9.333333333333334
9.886000000000001,2.0
9.888,10.0
9.89,11.333333333333334
9.892,16.666666666666668
9.894,17.0
9.896,9.0
9.898,6.666666666666667
9.9,13.333333333333334
9.902000000000001,16.333333333333332
9.904,19.333333333333332
9.906,12.333333333333334
9.908,11.333333333333334
9.91,12.666666666666666
9.912,-0.3333333333333333
9.914,11.333333333333334
9.916,12.333333333333334
9.918000000000001,4.333333333333333
9.92,11.666666666666666
9.922,7.666666666666667
9.924,7.0
9.926,11.0
9.928,14.666666666666666
9.93,14.333333333333334
9.932,14.0
9.934000000000001,15.666666666666666
9.936,5.333333333333333
9.938,11.333333333333334
9.94,13.666666666666666
9.942,9.0
9.944,12.0
9.946,9.333333333333334
9.948,11.333333333333334
9.950000000000001,12.0
9.952,16.0
9.954,12.666666666666666
9.956,15.333333333333334
9.958,11.666666666666666
9.96,13.0
9.962,15.333333333333334
9.964,7.0
9.966000000000001,14.333333333333334
9.968,20.0
9.97,16.666666666666668
9.972,13.0
9.974,16.333333333333332
9.976,14.666666666666666
9.978,14.0
9.98,10.0
9.982000000000001,8.666666666666666
9.984,15.0
9.986,18.666666666666668
9.988,15.333333333333334
9.99,16.0
9.992,17.333333333333332
9.994,13.333333333333334
9.996,11.0
9.998,17.0
10.0,19.0
10.002,18.666666666666668
10.004,12.0
10.006,20.666666666666668
10.008000000000001,24.333333333333332
10.01,21.0
10.012,17.333333333333332
10.014,18.0
10.016,19.333333333333332
10.018,26.0
10.02,20.666666666666668
10.022,25.0
10.024000000000001,28.0
10.026,19.0
10.028,23.333333333333332
10.03,34.666666666666664
10.032,31.0
10.034,31.0
10.036,30.333333333333332
10.038,30.666666666666668
10.040000000000001,29.0
10.042,26.666666666666668
10.044,27.333333333333332
10.046,31.0
10.048,29.666666666666668
10.05,30.333333333333332
10.052,28.0
10.054,33.333333333333336
10.056000000000001,30.0
10.058,29.333333333333332
10.06,32.666666666666664
10.062,37.333333333333336
10.064,38.333333333333336
10.066,31.333333333333332
10.068,34.0
10.07,35.333333333333336
10.072000000000001,31.666666666666668
10.074,24.666666666666668
10.076,30.333333333333332
10.078,32.333333333333336
10.08,35.0
10.082,29.333333333333332
10.084,30.0
10.086,30.0
10.088000000000001,22.666666666666668
10.09,25.333333333333332
10.092,24.0
10.094,27.0
10.096,24.0
10.098,27.666666666666668
10.1,25.666666666666668
10.102,27.666666666666668
10.104000000000001,22.0
10.106,22.0
10.108,16.333333333333332
10.11,17.0
10.112,18.333333333333332
10.114,16.0
10.116,16.666666666666668
10.118,14.333333333333334
10.120000000000001,21.0
10.122,16.333333333333332
10.124,15.333333333333334
10.126,14.0
10.128,16.666666666666668
10.13,14.666666666666666
10.132,13.0
10.134,11.666666666666666
10.136000000000001,16.333333333333332
10.138,13.333333333333334
10.14,8.333333333333334
10.142,12.0
10.144,6.666666666666667
10.146,8.333333333333334
10.148,12.666666666666666
10.15,10.0
10.152000000000001,9.0
10.154,10.333333333333334
10.156,9.333333333333334
10.158,10.666666666666666
10.16,10.666666666666666
10.162,1.3333333333333333
10.164,8.666666666666666
10.166,12.666666666666666
10.168000000000001,12.0
10.17,9.666666666666666
10.172,4.666666666666667
10.174,8.0
10.176,7.333333333333333
10.178,9.0
10.18,7.333333333333333
10.182,4.0
10.184000000000001,14.333333333333334
10.186,10.666666666666666
10.188,10.666666666666666
10.19,6.333333333333333
10.192,12.0
10.194,13.0
10.196,15.0
10.198,9.666666666666666
10.200000000000001,7.666666666666667
10.202,14.0
10.204,13.333333333333334
10.206,10.666666666666666
10.208,9.0
10.21,8.666666666666666
10.212,8.666666666666666
10.214,9.0
10.216000000000001,11.333333333333334
10.218,8.0
10.22,11.0
10.222,12.333333333333334
10.224,11.666666666666666
10.226,13.333333333333334
10.228,6.333333333333333
10.23,0.3333333333333333
10.232000000000001,14.666666666666666
10.234,13.333333333333334
10.236,14.666666666666666
10.238,15.666666666666666
10.24,12.666666666666666
10.242,10.666666666666666
10.244,10.333333333333334
10.246,12.0
10.248,12.333333333333334
10.25,10.0
10.252,7.333333333333333
10.254,8.333333333333334
10.256,8.0
10.258000000000001,10.0
10.26,16.333333333333332
10.262,13.666666666666666
10.264,12.666666666666666
10.266,13.666666666666666
10.268,9.333333333333334
10.27,5.0
10.272,6.666666666666667
10.274000000000001,19.0
10.276,15.333333333333334
10.278,18.333333333333332
10.28,13.333333333333334
10.282,10.666666666666666
10.284,5.0
10.286,7.333333333333333
10.288,12.0
10.290000000000001,16.666666666666668
10.292,17.666666666666668
10.294,11.0
10.296,10.0
10.298,13.333333333333334
10.3,6.0
10.302,9.333333333333334
10.304,12.0
10.306000000000001,10.666666666666666
10.308,9.0
10.31,8.333333333333334
10.312,12.666666666666666
10.314,11.333333333333334
10.316,10.333333333333334
10.318,13.0
10.32,13.666666666666666
10.322000000000001,3.6666666666666665
10.324,9.333333333333334
10.326,13.666666666666666
10.328,9.0
10.33,7.333333333333333
10.332,8.0
10.334,9.0
10.336,14.0
10.338000000000001,11.333333333333334
10.34,12.666666666666666
10.342,12.666666666666666
10.344,11.0
10.346,10.666666666666666
10.348,9.0
10.35,7.666666666666667
10.352,9.0
10.354000000000001,10.333333333333334
10.356,14.0
10.358,14.666666666666666
10.36,11.333333333333334
10.362,10.666666666666666
10.364,13.0
10.366,8.0
10.368,10.0
10.370000000000001,7.0
10.372,11.333333333333334
10.374,10.666666666666666
10.376,19.333333333333332
10.378,18.0
10.38,12.333333333333334
10.382,7.666666666666667
10.384,2.6666666666666665
10.386000000000001,2.6666666666666665
10.388,5.666666666666667
10.39,8.0
10.392,3.3333333333333335
10.394,2.6666666666666665
10.396,10.333333333333334
10.398,10.333333333333334
10.4,6.666666666666667
10.402000000000001,11.666666666666666
10.404,16.333333333333332
10.406,15.333333333333334
10.408,13.666666666666666
10.41,11.333333333333334
10.412,12.333333333333334
10.414,9.666666666666666
10.416,7.666666666666667
10.418000000000001,9.666666666666666
10.42,7.333333333333333
10.422,10.0
10.424,4.0
10.426,11.333333333333334
10.428,17.666666666666668
10.43,11.666666666666666
10.432,10.333333333333334
10.434000000000001,6.666666666666667
10.436,11.333333333333334
10.438,15.666666666666666
10.44,15.333333333333334
10.442,9.666666666666666
10.444,13.333333333333334
10.446,13.666666666666666
10.448,13.333333333333334
10.450000000000001,12.333333333333334
10.452,15.333333333333334
10.454,10.0
10.456,13.333333333333334
10.458,9.333333333333334
10.46,11.666666666666666
10.462,11.0
10.464,13.666666666666666
10.466000000000001,16.333333333333332
10.468,20.0
10.47,20.333333333333332
10.472,15.333333333333334
10.474,11.0
10.476,16.666666666666668
10.478,15.333333333333334
10.48,16.0
10.482000000000001,12.333333333333334
10.484,13.333333333333334
10.486,20.666666666666668
10.488,19.666666666666668
10.49,17.0
10.492,13.0
10.494,10.0
10.496,8.666666666666666
10.498,17.0
10.5,16.0
10.502,10.0
10.504,13.0
10.506,12.333333333333334
10.508000000000001,17.0
10.51,11.666666666666666
10.512,14.333333333333334
10.514,9.666666666666666
10.516,10.666666666666666
10.518,13.333333333333334
10.52,16.0
10.522,8.0
10.524000000000001,11.0
10.526,6.666666666666667
10.528,1.3333333333333333
10.53,6.333333333333333
10.532,13.0
10.534,17.0
10.536,23.333333333333332
10.538,20.666666666666668
10.540000000000001,22.666666666666668
10.542,15.666666666666666
10.544,7.666666666666667
10.546,3.6666666666666665
10.548,4.333333333333333
10.55,13.333333333333334
10.552,14.666666666666666
10.554,16.666666666666668
10.556000000000001,12.333333333333334
10.558,9.0
10.56,8.666666666666666
10.562,8.333333333333334
10.564,7.666666666666667
10.566,9.0
10.568,6.666666666666667
10.57,7.666666666666667
10.572000000000001,6.333333333333333
10.574,10.666666666666666
10.576,19.333333333333332
10.578,29.666666666666668
10.58,36.666666666666664
10.582,40.333333333333336
10.584,43.0
10.586,46.333333333333336
10.588000000000001,66.66666666666667
10.59,78.33333333333333
10.592,94.0
10.594,98.33333333333333
10.596,103.33333333333333
10.598,92.33333333333333
10.6,90.0
10.602,86.0
10.604000000000001,67.33333333333333
10.606,52.333333333333336
10.608,41.666666666666664
10.61,27.666666666666668
10.612,12.333333333333334
10.614,8.333333333333334
10.616,13.666666666666666
10.618,15.0
10.620000000000001,13.0
10.622,10.0
10.624,12.333333333333334
10.626,15.666666666666666
10.628,14.0
10.63,10.666666666666666
10.632,9.333333333333334
10.634,14.666666666666666
10.636000000000001,15.333333333333334
10.638,16.333333333333332
10.64,11.666666666666666
10.642,11.0
10.644,19.0
10.646,13.666666666666666
10.648,13.666666666666666
10.65,10.666666666666666
10.652000000000001,9.0
10.654,14.0
10.656,14.0
10.658,13.0
10.66,14.0
10.662,16.0
10.664,13.333333333333334
10.666,11.0
10.668000000000001,11.333333333333334
10.67,11.666666666666666
10.672,11.666666666666666
10.674,18.666666666666668
10.676,18.333333333333332
10.678,17.333333333333332
10.68,14.0
10.682,10.333333333333334
10.684000000000001,11.0
10.686,13.666666666666666
10.688,10.666666666666666
10.69,10.666666666666666
10.692,14.666666666666666
10.694,22.0
10.696,18.0
10.698,15.666666666666666
10.700000000000001,13.0
10.702,14.0
10.704,16.666666666666668
10.706,18.666666666666668
10.708,18.333333333333332
10.71,10.0
10.712,17.333333333333332
10.714,25.0
10.716000000000001,16.666666666666668
10.718,16.666666666666668
10.72,18.666666666666668
10.722,18.0
10.724,14.333333333333334
10.726,18.0
10.728,14.666666666666666
10.73,14.333333333333334
10.732000000000001,16.666666666666668
10.734,21.0
10.736,21.0
10.738,22.666666666666668
10.74,24.333333333333332
10.742,25.0
10.744,24.0
10.746,20.666666666666668
10.748000000000001,20.0
10.75,22.333333333333332
10.752,20.333333333333332
10.754,21.0
10.756,21.666666666666668
10.758000000000001,23.0
10.76,25.0
10.762,25.333333333333332
10.764,29.0
10.766,26.666666666666668
10.768,22.333333333333332
10.77,38.666666666666664
10.772,35.333333333333336
10.774000000000001,27.666666666666668
10.776,26.0
10.778,29.0
10.78,30.0
10.782,28.666666666666668
10.784,28.666666666666668
10.786,34.333333333333336
10.788,33.0
10.790000000000001,33.333333333333336
10.792,32.333333333333336
10.794,33.333333333333336
10.796,27.666666666666668
10.798,37.333333333333336
10.8,41.0
10.802,40.0
10.804,31.0
10.806000000000001,34.666666666666664
10.808,35.0
10.81,30.333333333333332
10.812,36.333333333333336
10.814,43.333333333333336
10.816,47.333333333333336
10.818,46.333333333333336
10.82,45.0
10.822000000000001,37.0
10.824,30.666666666666668
10.826,30.333333333333332
10.828,30.0
10.83,29.333333333333332
10.832,33.666666666666664
10.834,40.333333333333336
10.836,35.0
10.838000000000001,30.333333333333332
10.84,28.333333333333332
10.842,30.333333333333332
10.844,25.666666666666668
10.846,25.333333333333332
10.848,29.666666666666668
10.85,27.666666666666668
10.852,26.333333333333332
10.854000000000001,25.0
10.856,23.666666666666668
10.858,20.333333333333332
10.86,24.333333333333332
10.862,29.333333333333332
10.864,20.0
10.866,17.666666666666668
10.868,18.0
10.870000000000001,21.666666666666668
10.872,19.0
10.874,18.666666666666668
10.876,20.0
10.878,12.0
10.88,11.666666666666666
10.882,16.333333333333332
10.884,19.666666666666668
10.886000000000001,17.333333333333332
10.888,21.666666666666668
10.89,20.333333333333332
10.892,14.0
10.894,13.0
10.896,11.333333333333334
10.898,14.666666666666666
10.9,18.0
10.902000000000001,11.666666666666666
10.904,10.333333333333334
10.906,13.0
10.908,12.333333333333334
10.91,12.666666666666666
10.912,18.666666666666668
10.914,12.0
10.916,12.0
10.918000000000001,17.0
10.92,16.333333333333332
10.922,17.0
10.924,10.666666666666666
10.926,15.0
