Time,FHR
0.0,1.0
0.002,0.9333333333333333
0.004,0.8666666666666667
0.006,0.5666666666666667
0.008,0.8666666666666667
0.01,1.9333333333333333
0.012,1.9333333333333333
0.014,1.1333333333333333
0.016,1.1666666666666667
0.018000000000000002,1.6333333333333333
0.02,1.4666666666666666
0.022,1.3666666666666667
0.024,1.1333333333333333
0.026000000000000002,0.9
0.028,1.1
0.03,1.1
0.032,0.6333333333333333
0.034,0.7666666666666667
0.036000000000000004,0.6666666666666666
0.038,1.3333333333333333
0.04,0.8
0.042,1.2
0.044,1.3333333333333333
0.046,1.0333333333333334
0.048,0.7
0.05,1.3333333333333333
0.052000000000000005,1.5
0.054,1.2666666666666666
0.056,1.2666666666666666
0.058,1.5
0.06,0.8333333333333334
0.062,0.8
0.064,1.2666666666666666
0.066,0.7
0.068,0.6333333333333333
0.07,0.6333333333333333
0.07200000000000001,1.2
0.074,1.5333333333333334
0.076,1.3666666666666667
0.078,0.6
0.08,0.8333333333333334
0.082,0.8333333333333334
0.084,1.4
0.08600000000000001,1.6
0.088,1.2666666666666666
0.09,1.0333333333333334
0.092,0.3
0.094,0.9666666666666667
0.096,1.3333333333333333
0.098,1.5
0.1,0.43333333333333335
0.10200000000000001,0.26666666666666666
0.10400000000000001,1.4333333333333333
0.106,1.1
0.108,1.0
0.11,1.3666666666666667
0.112,1.4333333333333333
0.114,1.9
0.116,1.0333333333333334
0.11800000000000001,0.6
0.12,1.0
0.122,0.6666666666666666
0.124,0.7333333333333333
0.126,0.5
0.128,0.5333333333333333
0.13,1.0666666666666667
0.132,1.1
0.134,1.5
0.136,0.8
0.138,1.2
0.14,1.0666666666666667
0.14200000000000002,1.5333333333333334
0.14400000000000002,0.8666666666666667
0.146,0.36666666666666664
0.148,0.7333333333333333
0.15,0.7
0.152,0.5333333333333333
0.154,1.0666666666666667
0.156,1.0
0.158,0.9
0.16,0.6
0.162,0.4666666666666667
0.164,0.9
0.166,1.3666666666666667
0.168,1.2333333333333334
0.17,1.0
0.17200000000000001,1.1666666666666667
0.17400000000000002,1.1
0.176,1.1666666666666667
0.178,0.3
0.18,0.13333333333333333
0.182,0.2
0.184,0.5666666666666667
0.186,0.7
0.188,0.7666666666666667
0.19,1.2333333333333334
0.192,1.5333333333333334
0.194,1.7
0.196,1.3
0.198,1.2333333333333334
0.2,1.3333333333333333
0.202,1.4
0.20400000000000001,0.8333333333333334
0.20600000000000002,0.3333333333333333
0.20800000000000002,1.3666666666666667
0.21,0.9333333333333333
0.212,0.7
0.214,1.1333333333333333
0.216,1.2
0.218,1.1
0.22,1.4
0.222,1.4
0.224,1.5666666666666667
0.226,1.7666666666666666
0.228,2.1
0.23,1.0666666666666667
0.232,0.26666666666666666
0.234,0.8
0.23600000000000002,1.1333333333333333
0.23800000000000002,0.8
0.24,1.1333333333333333
0.242,1.0333333333333334
0.244,1.0333333333333334
0.246,0.8333333333333334
0.248,0.9333333333333333
0.25,0.8
0.252,0.8666666666666667
0.254,1.8
0.256,2.2333333333333334
0.258,1.3
0.26,0.9
0.262,1.5
0.264,1.0333333333333334
0.266,1.3
0.268,1.1333333333333333
0.27,1.1333333333333333
0.272,1.2333333333333334
0.274,1.4
0.276,1.4666666666666666
0.278,1.2333333333333334
0.28,0.8666666666666667
0.28200000000000003,0.13333333333333333
0.28400000000000003,0.6
0.28600000000000003,0.4666666666666667
0.28800000000000003,0.6333333333333333
0.29,0.2
0.292,0.4666666666666667
0.294,0.7666666666666667
0.296,0.5666666666666667
0.298,-0.3333333333333333
0.3,0.23333333333333334
0.302,1.1333333333333333
0.304,1.0
0.306,0.06666666666666667
0.308,0.7666666666666667
0.31,1.1666666666666667
0.312,0.8666666666666667
0.314,0.7
0.316,0.6666666666666666
0.318,0.5
0.32,-0.16666666666666666
0.322,0.4666666666666667
0.324,0.6
0.326,0.5333333333333333
0.328,0.8666666666666667
0.33,0.6333333333333333
0.332,0.7333333333333333
0.334,0.36666666666666664
0.336,0.7666666666666667
0.338,0.5666666666666667
0.34,0.3333333333333333
0.342,0.6666666666666666
0.34400000000000003,0.7
0.34600000000000003,0.3333333333333333
0.34800000000000003,0.06666666666666667
0.35000000000000003,-0.1
0.352,0.7333333333333333
0.354,1.4333333333333333
0.356,1.5666666666666667
0.358,2.0
0.36,2.8666666666666667
0.362,3.566666666666667
0.364,4.4
0.366,5.566666666666666
0.368,6.133333333333334
0.37,6.366666666666666
0.372,5.9
0.374,5.6
0.376,4.5
0.378,3.4
0.38,1.9333333333333333
0.382,0.36666666666666664
0.384,-0.03333333333333333
0.386,-0.7333333333333333
0.388,-0.5
0.39,-0.36666666666666664
0.392,-0.16666666666666666
0.394,0.6666666666666666
0.396,0.06666666666666667
0.398,-0.43333333333333335
0.4,0.0
0.402,0.0
0.404,0.06666666666666667
0.406,1.3333333333333333
0.40800000000000003,0.8
0.41000000000000003,0.03333333333333333
0.41200000000000003,0.4
0.41400000000000003,0.4666666666666667
0.41600000000000004,0.36666666666666664
0.418,0.36666666666666664
0.42,0.6666666666666666
0.422,0.6333333333333333
0.424,0.3333333333333333
0.426,0.8
0.428,0.6333333333333333
0.43,0.06666666666666667
0.432,0.6666666666666666
0.434,0.9666666666666667
0.436,0.5333333333333333
0.438,0.7
0.44,0.6
0.442,0.6333333333333333
0.444,0.5666666666666667
0.446,0.23333333333333334
0.448,0.7666666666666667
0.45,1.2666666666666666
0.452,0.9666666666666667
0.454,1.0333333333333334
0.456,0.9333333333333333
0.458,1.2
0.46,0.5666666666666667
0.462,0.7333333333333333
0.464,0.8333333333333334
0.466,1.6666666666666667
0.468,1.7666666666666666
0.47000000000000003,2.0
0.47200000000000003,1.4666666666666666
0.47400000000000003,0.5666666666666667
0.47600000000000003,0.0
0.47800000000000004,0.03333333333333333
0.48,0.5666666666666667
0.482,0.9
0.484,0.9666666666666667
0.486,0.36666666666666664
0.488,1.0666666666666667
0.49,0.8333333333333334
0.492,1.3666666666666667
0.494,0.5
0.496,0.8666666666666667
0.498,1.1
0.5,1.5333333333333334
0.502,1.2
0.504,1.0333333333333334
0.506,1.5333333333333334
0.508,1.3
0.51,1.1333333333333333
0.512,0.6333333333333333
0.514,0.5666666666666667
0.516,0.6
0.518,0.8333333333333334
0.52,1.2
0.522,1.2333333333333334
0.524,1.0666666666666667
0.526,1.3333333333333333
0.528,1.4333333333333333
0.53,1.4
0.532,1.3
0.534,1.5666666666666667
0.536,1.4666666666666666
0.538,1.1
0.54,1.0333333333333334
0.542,1.6333333333333333
0.544,1.2666666666666666
0.546,0.8333333333333334
0.548,1.9333333333333333
0.55,1.7666666666666666
0.552,1.4
0.554,1.4
0.556,1.3333333333333333
0.558,1.1333333333333333
0.56,1.7
0.562,1.4
0.5640000000000001,1.3666666666666667
0.5660000000000001,1.5333333333333334
0.5680000000000001,1.6666666666666667
0.5700000000000001,1.2333333333333334
0.5720000000000001,1.7666666666666666
0.5740000000000001,2.3666666666666667
0.5760000000000001,1.7666666666666666
0.578,1.7333333333333334
0.58,2.066666666666667
0.582,2.0
0.584,1.9333333333333333
0.586,1.9333333333333333
0.588,2.1666666666666665
0.59,2.3666666666666667
0.592,1.7666666666666666
0.594,1.6
0.596,1.9
0.598,1.8
0.6,2.433333333333333
0.602,1.7
0.604,2.566666666666667
0.606,2.1
0.608,1.6333333333333333
0.61,2.066666666666667
0.612,2.1666666666666665
0.614,2.1
0.616,2.1666666666666665
0.618,2.1666666666666665
0.62,1.6333333333333333
0.622,1.4666666666666666
0.624,1.9333333333333333
0.626,2.0
0.628,1.8333333333333333
0.63,2.066666666666667
0.632,2.1
0.634,2.066666666666667
0.636,1.8
0.638,2.1666666666666665
0.64,1.8
0.642,1.6666666666666667
0.644,2.1333333333333333
0.646,2.2333333333333334
0.648,2.6
0.65,2.7
0.652,2.7
0.654,2.033333333333333
0.656,1.4666666666666666
0.658,1.1666666666666667
0.66,1.6
0.662,1.6333333333333333
0.664,1.8666666666666667
0.666,1.6
0.668,1.5333333333333334
0.67,1.6666666666666667
0.672,1.6333333333333333
0.674,1.7
0.676,2.066666666666667
0.678,1.7
0.68,1.9
0.682,1.7666666666666666
0.684,1.5666666666666667
0.686,1.6333333333333333
0.6880000000000001,1.7
0.6900000000000001,1.7333333333333334
0.6920000000000001,1.5
0.6940000000000001,1.5666666666666667
0.6960000000000001,1.6
0.6980000000000001,1.1333333333333333
0.7000000000000001,1.7
0.7020000000000001,1.6666666666666667
0.704,1.6666666666666667
0.706,0.3333333333333333
0.708,0.5666666666666667
0.71,1.5333333333333334
0.712,1.9
0.714,1.9333333333333333
0.716,1.3333333333333333
0.718,1.6333333333333333
0.72,1.7666666666666666
0.722,1.3
0.724,1.3333333333333333
0.726,1.4666666666666666
0.728,1.3666666666666667
0.73,1.7333333333333334
0.732,1.9
0.734,1.4333333333333333
0.736,1.5
0.738,1.1333333333333333
0.74,1.6666666666666667
0.742,1.8666666666666667
0.744,1.6333333333333333
0.746,1.5666666666666667
0.748,0.8333333333333334
0.75,1.2333333333333334
0.752,1.5
0.754,1.3
0.756,0.9
0.758,1.5
0.76,1.4
0.762,1.0666666666666667
0.764,1.5
0.766,1.7333333333333334
0.768,1.7
0.77,1.4666666666666666
0.772,2.1
0.774,1.2333333333333334
0.776,0.9333333333333333
0.778,1.0333333333333334
0.78,1.2333333333333334
0.782,1.6666666666666667
0.784,2.2333333333333334
0.786,1.6
0.788,1.5666666666666667
0.79,1.6
0.792,1.9
0.794,1.5333333333333334
0.796,1.4666666666666666
0.798,1.7
0.8,1.2
0.802,1.8
0.804,1.9666666666666666
0.806,1.9
0.808,2.1
0.81,1.7333333333333334
0.812,1.2
0.8140000000000001,1.7666666666666666
0.8160000000000001,1.6
0.8180000000000001,1.4
0.8200000000000001,1.3
0.8220000000000001,1.7
0.8240000000000001,1.9666666666666666
0.8260000000000001,1.3666666666666667
0.8280000000000001,1.6666666666666667
0.8300000000000001,1.7333333333333334
0.8320000000000001,0.8
0.834,1.1333333333333333
0.836,1.2
0.838,1.1
0.84,1.2666666666666666
0.842,1.1
0.844,1.3666666666666667
0.846,1.3666666666666667
0.848,1.5
0.85,0.9666666666666667
0.852,1.2333333333333334
0.854,1.5333333333333334
0.856,1.7
0.858,1.3
0.86,1.4333333333333333
0.862,1.4666666666666666
0.864,1.6666666666666667
0.866,1.3
0.868,1.6
0.87,1.3
0.872,2.2333333333333334
0.874,2.2
0.876,1.4666666666666666
0.878,1.6666666666666667
0.88,1.1
0.882,1.3333333333333333
0.884,1.5333333333333334
0.886,1.5333333333333334
0.888,1.3333333333333333
0.89,1.1333333333333333
0.892,1.3333333333333333
0.894,1.7
0.896,2.2666666666666666
0.898,1.2333333333333334
0.9,1.0666666666666667
0.902,0.8333333333333334
0.904,1.0333333333333334
0.906,1.4333333333333333
0.908,1.4
0.91,1.4666666666666666
0.912,1.2333333333333334
0.914,1.2
0.916,1.1333333333333333
0.918,1.3666666666666667
0.92,1.1333333333333333
0.922,1.2
0.924,1.2333333333333334
0.926,1.7666666666666666
0.928,1.8333333333333333
0.93,1.8666666666666667
0.932,1.3666666666666667
0.934,1.4666666666666666
0.936,1.4333333333333333
0.9380000000000001,1.4
0.9400000000000001,1.2666666666666666
0.9420000000000001,1.2333333333333334
0.9440000000000001,1.7
0.9460000000000001,1.9666666666666666
0.9480000000000001,1.7333333333333334
0.9500000000000001,2.533333333333333
0.9520000000000001,2.2
0.9540000000000001,2.3333333333333335
0.9560000000000001,2.066666666666667
0.9580000000000001,1.7666666666666666
0.96,2.1
0.962,2.6666666666666665
0.964,1.2666666666666666
0.966,0.9
0.968,1.1666666666666667
0.97,0.9666666666666667
0.972,1.3333333333333333
0.974,1.6333333333333333
0.976,1.4333333333333333
0.978,1.6
0.98,1.5666666666666667
0.982,1.5333333333333334
0.984,1.7333333333333334
0.986,1.5666666666666667
0.988,1.9333333333333333
0.99,1.5
0.992,1.8
0.994,1.8666666666666667
0.996,1.6666666666666667
0.998,2.066666666666667
1.0,1.6666666666666667
1.002,1.5
1.004,1.5
1.006,1.2
1.008,1.2666666666666666
1.01,1.1666666666666667
1.012,0.7666666666666667
1.014,0.6333333333333333
1.016,0.4
1.018,0.6666666666666666
1.02,0.6
1.022,1.5666666666666667
1.024,0.6666666666666666
1.026,0.9666666666666667
1.028,1.0333333333333334
1.03,0.6333333333333333
1.032,0.7666666666666667
1.034,0.6666666666666666
1.036,0.36666666666666664
1.038,0.4666666666666667
1.04,-0.03333333333333333
1.042,0.7666666666666667
1.044,1.1666666666666667
1.046,1.0
1.048,0.5666666666666667
1.05,0.6666666666666666
1.052,0.2
1.054,0.9333333333333333
1.056,0.26666666666666666
1.058,0.8666666666666667
1.06,0.8666666666666667
1.062,1.0666666666666667
1.064,1.6333333333333333
1.066,1.9
1.068,0.6666666666666666
1.07,-0.7
1.072,-0.7
1.074,-0.4666666666666667
1.076,-0.5
1.078,-0.3
1.08,0.06666666666666667
1.082,0.9333333333333333
1.084,1.0333333333333334
1.086,1.3
1.088,2.066666666666667
1.09,1.8333333333333333
1.092,2.7
1.094,3.8333333333333335
1.096,4.9
1.098,6.0
1.1,6.233333333333333
1.102,5.766666666666667
1.104,5.0
1.106,4.333333333333333
1.108,3.966666666666667
1.11,2.1666666666666665
1.112,0.36666666666666664
1.114,-0.43333333333333335
1.116,-0.9
1.118,-0.8333333333333334
1.12,-1.0333333333333334
1.122,-0.9666666666666667
1.124,-1.1
1.1260000000000001,-1.0666666666666667
1.1280000000000001,-0.9
1.1300000000000001,-0.5333333333333333
1.1320000000000001,-0.23333333333333334
1.1340000000000001,-0.2
1.1360000000000001,-0.06666666666666667
1.1380000000000001,-0.1
1.1400000000000001,0.26666666666666666
1.1420000000000001,0.6
1.1440000000000001,0.7333333333333333
1.1460000000000001,0.16666666666666666
1.1480000000000001,0.03333333333333333
1.1500000000000001,-0.06666666666666667
1.1520000000000001,-0.3
1.154,0.0
1.156,-0.13333333333333333
1.158,-0.6333333333333333
1.16,-0.8333333333333334
1.162,-0.4666666666666667
1.164,0.43333333333333335
1.166,0.5333333333333333
1.168,0.7666666666666667
1.17,0.6666666666666666
1.172,0.6
1.174,0.7
1.176,-0.36666666666666664
1.178,-1.1333333333333333
1.18,-1.0666666666666667
1.182,-0.06666666666666667
1.184,0.5
1.186,0.2
1.188,0.5666666666666667
1.19,0.43333333333333335
1.192,0.5666666666666667
1.194,0.13333333333333333
1.196,-0.1
1.198,-0.03333333333333333
1.2,0.1
1.202,0.4666666666666667
1.204,0.43333333333333335
1.206,0.2
1.208,0.7
1.21,0.7
1.212,0.7666666666666667
1.214,0.2
1.216,0.06666666666666667
1.218,-0.3333333333333333
1.22,0.26666666666666666
1.222,0.8333333333333334
1.224,1.2333333333333334
1.226,1.1
1.228,0.9666666666666667
1.23,0.3
1.232,-0.06666666666666667
1.234,0.5666666666666667
1.236,0.43333333333333335
1.238,0.6333333333333333
1.24,0.9333333333333333
1.242,0.8
1.244,0.5666666666666667
1.246,0.5
1.248,0.43333333333333335
1.25,0.3
1.252,0.3
1.254,0.36666666666666664
1.256,0.8666666666666667
1.258,0.5
1.26,0.5666666666666667
1.262,0.3
1.264,0.0
1.266,0.6333333333333333
1.268,1.5666666666666667
1.27,1.4333333333333333
1.272,0.6
1.274,0.7666666666666667
1.276,0.7333333333333333
1.278,0.8
1.28,1.0
1.282,0.9333333333333333
1.284,0.9333333333333333
1.286,0.6666666666666666
1.288,0.5666666666666667
1.29,0.5666666666666667
1.292,1.2333333333333334
1.294,0.7333333333333333
1.296,1.3666666666666667
1.298,0.9333333333333333
1.3,1.8
1.302,1.9
1.304,0.23333333333333334
1.306,1.2333333333333334
1.308,0.7333333333333333
1.31,0.8
1.312,1.0333333333333334
1.314,0.9
1.316,1.1
1.318,1.2666666666666666
1.32,0.9666666666666667
1.322,1.7
1.324,1.8333333333333333
1.326,1.3333333333333333
1.328,1.5
1.33,1.1666666666666667
1.332,1.4666666666666666
1.334,1.3
1.336,1.3333333333333333
1.338,0.7666666666666667
1.34,0.8666666666666667
1.342,1.9333333333333333
1.344,1.5333333333333334
1.346,1.0333333333333334
1.348,1.4666666666666666
1.35,1.4333333333333333
1.352,1.4666666666666666
1.354,1.1
1.356,1.0333333333333334
1.358,1.5
1.36,1.9
1.362,1.5333333333333334
1.364,1.3333333333333333
1.366,1.4
1.368,1.5333333333333334
1.37,1.1666666666666667
1.372,1.3
1.374,1.6
1.3760000000000001,1.4333333333333333
1.3780000000000001,1.2333333333333334
1.3800000000000001,1.0333333333333334
1.3820000000000001,1.4666666666666666
1.3840000000000001,1.1333333333333333
1.3860000000000001,1.1
1.3880000000000001,1.4333333333333333
1.3900000000000001,1.4
1.3920000000000001,1.1666666666666667
1.3940000000000001,-0.36666666666666664
1.3960000000000001,1.1666666666666667
1.3980000000000001,0.16666666666666666
1.4000000000000001,0.8666666666666667
1.4020000000000001,1.2
1.4040000000000001,1.1
1.4060000000000001,1.1666666666666667
1.408,0.9333333333333333
1.41,1.1666666666666667
1.412,0.4
1.414,0.5333333333333333
1.416,0.8
1.418,0.4
1.42,0.3333333333333333
1.422,0.5333333333333333
1.424,0.43333333333333335
1.426,-0.13333333333333333
1.428,0.5333333333333333
1.43,0.43333333333333335
1.432,0.4666666666666667
1.434,1.0666666666666667
1.436,0.7
1.438,0.7
1.44,0.7666666666666667
1.442,0.4666666666666667
1.444,-0.03333333333333333
1.446,0.5666666666666667
1.448,0.4666666666666667
1.45,0.26666666666666666
1.452,-0.03333333333333333
1.454,0.3333333333333333
1.456,0.8
1.458,0.7333333333333333
1.46,0.8333333333333334
1.462,0.7
1.464,0.6666666666666666
1.466,0.8333333333333334
1.468,0.5666666666666667
1.47,0.3
1.472,0.4666666666666667
1.474,0.3
1.476,0.5
1.478,0.5
1.48,0.8666666666666667
1.482,0.7666666666666667
1.484,0.9
1.486,0.7
1.488,0.5666666666666667
1.49,0.8666666666666667
1.492,0.4
1.494,0.5
1.496,0.7
1.498,0.23333333333333334
1.5,0.03333333333333333
1.502,0.06666666666666667
1.504,0.5
1.506,0.6666666666666666
1.508,1.1666666666666667
1.51,1.1666666666666667
1.512,0.4666666666666667
1.514,0.6
1.516,0.8333333333333334
1.518,-0.43333333333333335
1.52,0.3
1.522,0.3333333333333333
1.524,0.4666666666666667
1.526,0.5666666666666667
1.528,0.2
1.53,-0.13333333333333333
1.532,0.03333333333333333
1.534,0.06666666666666667
1.536,0.7
1.538,0.7
1.54,0.7666666666666667
1.542,0.8
1.544,0.7666666666666667
1.546,0.8
1.548,1.0
1.55,0.5666666666666667
1.552,0.4666666666666667
1.554,-0.43333333333333335
1.556,-0.2
1.558,0.7666666666666667
1.56,1.3666666666666667
1.562,1.1333333333333333
1.564,0.9666666666666667
1.566,0.5666666666666667
1.568,0.6
1.57,0.3333333333333333
1.572,0.5
1.574,0.5333333333333333
1.576,0.4666666666666667
1.578,0.0
1.58,0.3
1.582,0.6666666666666666
1.584,1.2333333333333334
1.586,0.9
1.588,0.4666666666666667
1.59,0.5333333333333333
1.592,0.6333333333333333
1.594,0.9
1.596,0.6
1.598,0.1
1.6,0.7333333333333333
1.602,0.4
1.604,0.2
1.606,-0.06666666666666667
1.608,0.36666666666666664
1.61,0.3333333333333333
1.612,0.3
1.614,0.03333333333333333
1.616,-0.23333333333333334
1.618,0.8666666666666667
1.62,0.8666666666666667
1.622,0.4
1.624,0.4666666666666667
1.6260000000000001,0.43333333333333335
1.6280000000000001,0.8666666666666667
1.6300000000000001,0.7
1.6320000000000001,0.2
1.6340000000000001,0.3333333333333333
1.6360000000000001,0.8666666666666667
1.6380000000000001,1.0
1.6400000000000001,0.8333333333333334
1.6420000000000001,0.5333333333333333
1.6440000000000001,1.1
1.6460000000000001,0.4666666666666667
1.6480000000000001,-0.23333333333333334
1.6500000000000001,-0.8
1.6520000000000001,0.13333333333333333
1.6540000000000001,0.3333333333333333
1.6560000000000001,0.13333333333333333
1.6580000000000001,0.5
1.6600000000000001,0.7
1.6620000000000001,0.5666666666666667
1.6640000000000001,0.8
1.666,1.0333333333333334
1.668,0.5
1.67,0.16666666666666666
1.672,1.1333333333333333
1.674,1.3333333333333333
1.676,1.0666666666666667
1.678,0.5333333333333333
1.68,1.1333333333333333
1.682,1.0333333333333334
1.684,0.9333333333333333
1.686,0.7666666666666667
1.688,0.7333333333333333
1.69,1.0666666666666667
1.692,1.7333333333333334
1.694,1.0666666666666667
1.696,1.1666666666666667
1.698,0.9
1.7,0.5333333333333333
1.702,1.0
1.704,1.0333333333333334
1.706,1.3333333333333333
1.708,0.9666666666666667
1.71,1.1333333333333333
1.712,1.1
1.714,0.8
1.716,0.9
1.718,1.2666666666666666
1.72,1.2
1.722,1.3333333333333333
1.724,1.1666666666666667
1.726,1.2
1.728,0.6333333333333333
1.73,0.6333333333333333
1.732,0.6333333333333333
1.734,0.8666666666666667
1.736,0.9333333333333333
1.738,0.7
1.74,0.6
1.742,0.6
1.744,0.7333333333333333
1.746,0.43333333333333335
1.748,0.3333333333333333
1.75,-0.06666666666666667
1.752,-0.5666666666666667
1.754,0.23333333333333334
1.756,0.06666666666666667
1.758,0.13333333333333333
1.76,0.7333333333333333
1.762,0.5666666666666667
1.764,0.23333333333333334
1.766,0.13333333333333333
1.768,-0.13333333333333333
1.77,0.1
1.772,0.5
1.774,0.5
1.776,0.4666666666666667
1.778,0.9
1.78,0.4
1.782,0.3
1.784,-0.6333333333333333
1.786,-0.23333333333333334
1.788,-0.3
1.79,0.3333333333333333
1.792,0.5
1.794,0.26666666666666666
1.796,0.03333333333333333
1.798,0.4
1.8,0.43333333333333335
1.802,-0.6666666666666666
1.804,-0.26666666666666666
1.806,0.6
1.808,1.4
1.81,1.1666666666666667
1.812,1.3
1.814,1.1666666666666667
1.816,2.8333333333333335
1.818,3.7333333333333334
1.82,4.533333333333333
1.822,5.2
1.824,5.8
1.826,6.233333333333333
1.828,5.633333333333334
1.83,4.7
1.832,4.1
1.834,3.3
1.836,1.6333333333333333
1.838,0.23333333333333334
1.84,-0.5666666666666667
1.842,-0.9333333333333333
1.844,-0.3333333333333333
1.846,-0.26666666666666666
1.848,-0.2
1.85,-0.5666666666666667
1.852,-0.5333333333333333
1.854,0.06666666666666667
1.856,-0.26666666666666666
1.858,-0.06666666666666667
1.86,-0.6
1.862,0.2
1.864,-0.03333333333333333
1.866,-0.2
1.868,-0.3333333333333333
1.87,0.3333333333333333
1.872,0.6666666666666666
1.874,0.2
1.8760000000000001,0.6333333333333333
1.8780000000000001,0.7
1.8800000000000001,-0.03333333333333333
1.8820000000000001,0.4666666666666667
1.8840000000000001,0.3333333333333333
1.8860000000000001,0.03333333333333333
1.8880000000000001,0.5666666666666667
1.8900000000000001,0.3
1.8920000000000001,0.0
1.8940000000000001,0.8333333333333334
1.8960000000000001,0.5333333333333333
1.8980000000000001,0.3333333333333333
1.9000000000000001,0.5
1.9020000000000001,0.8333333333333334
1.9040000000000001,0.7333333333333333
1.9060000000000001,0.5
1.9080000000000001,-0.36666666666666664
1.9100000000000001,-1.0333333333333334
1.9120000000000001,0.2
1.9140000000000001,0.3333333333333333
1.9160000000000001,0.3
1.9180000000000001,0.16666666666666666
1.92,0.7666666666666667
1.922,0.26666666666666666
1.924,0.5
1.926,0.8333333333333334
1.928,1.1666666666666667
1.93,1.1
1.932,-0.06666666666666667
1.934,0.4666666666666667
1.936,0.7
1.938,0.4666666666666667
1.94,0.8
1.942,0.8666666666666667
1.944,0.7666666666666667
1.946,0.6333333333333333
1.948,0.6
1.95,0.5666666666666667
1.952,0.26666666666666666
1.954,0.6333333333333333
1.956,0.9333333333333333
1.958,1.1
1.96,0.8
1.962,0.6666666666666666
1.964,0.6666666666666666
1.966,0.9
1.968,0.9
1.97,1.0
1.972,1.2
1.974,1.1666666666666667
1.976,1.5666666666666667
1.978,1.5666666666666667
1.98,1.2666666666666666
1.982,1.4
1.984,0.36666666666666664
1.986,0.7
1.988,0.3
1.99,-0.4666666666666667
1.992,0.8666666666666667
1.994,0.6333333333333333
1.996,0.9666666666666667
1.998,1.3
2.0,1.6666666666666667
2.0020000000000002,2.033333333333333
2.004,2.2333333333333334
2.0060000000000002,1.6666666666666667
2.008,1.3333333333333333
2.0100000000000002,1.4
2.012,0.9
2.0140000000000002,0.8666666666666667
2.016,1.3333333333333333
2.0180000000000002,1.4666666666666666
2.02,0.7666666666666667
2.0220000000000002,1.0333333333333334
2.024,0.9333333333333333
2.0260000000000002,1.0666666666666667
2.028,1.0333333333333334
2.0300000000000002,1.2666666666666666
2.032,1.4
2.0340000000000003,1.4
2.036,1.8
2.0380000000000003,1.2666666666666666
2.04,1.2333333333333334
2.0420000000000003,1.7666666666666666
2.044,1.7666666666666666
2.0460000000000003,2.2333333333333334
2.048,2.1666666666666665
2.05,1.3
2.052,0.9
2.054,0.9333333333333333
2.056,1.4666666666666666
2.058,1.8333333333333333
2.06,1.6
2.062,1.7333333333333334
2.064,1.3666666666666667
2.066,1.8666666666666667
2.068,2.1
2.07,2.2333333333333334
2.072,1.9333333333333333
2.074,1.7666666666666666
2.076,1.5666666666666667
2.078,1.1333333333333333
2.08,1.6666666666666667
2.082,2.6666666666666665
2.084,2.3666666666666667
2.086,1.7666666666666666
2.088,2.1666666666666665
2.09,1.6666666666666667
2.092,1.9
2.094,1.5333333333333334
2.096,2.2333333333333334
2.098,1.8
2.1,2.1666666666666665
2.102,1.1333333333333333
2.104,1.0
2.106,1.5333333333333334
2.108,1.7666666666666666
2.11,1.6666666666666667
2.112,1.6
2.114,1.8
2.116,2.0
2.118,1.8
2.12,1.6
2.122,1.9333333333333333
2.124,0.8666666666666667
2.126,1.2333333333333334
2.128,1.1333333333333333
2.13,0.8333333333333334
2.132,0.9333333333333333
2.134,1.4333333333333333
2.136,1.4333333333333333
2.138,1.9
2.14,0.9
2.142,0.8666666666666667
2.144,0.9333333333333333
2.146,1.1
2.148,1.0333333333333334
2.15,1.0666666666666667
2.152,1.1
2.154,0.5666666666666667
2.156,1.4333333333333333
2.158,1.0
2.16,0.8
2.162,1.5333333333333334
2.164,1.3666666666666667
2.166,0.7
2.168,0.6
2.17,1.2
2.172,1.2666666666666666
2.174,1.1
2.176,1.2666666666666666
2.178,1.1333333333333333
2.18,0.8666666666666667
2.182,1.0333333333333334
2.184,1.3
2.186,1.4333333333333333
2.188,1.0666666666666667
2.19,0.9666666666666667
2.192,0.6333333333333333
2.194,1.0333333333333334
2.196,1.0
2.198,1.3
2.2,1.4
2.202,1.4666666666666666
2.204,1.4333333333333333
2.206,0.7
2.208,0.6666666666666666
2.21,0.8666666666666667
2.212,1.1
2.214,1.7333333333333334
2.216,1.7333333333333334
2.218,1.3
2.22,1.2666666666666666
2.222,1.4
2.224,0.9333333333333333
2.226,0.7666666666666667
2.228,1.5666666666666667
2.23,1.3333333333333333
2.232,0.6
2.234,-0.4
2.236,0.8
2.238,1.7
2.24,2.0
2.242,1.3666666666666667
2.244,1.9333333333333333
2.246,1.4
2.248,1.2666666666666666
2.25,1.7
2.2520000000000002,1.6333333333333333
2.254,2.066666666666667
2.2560000000000002,2.433333333333333
2.258,1.1666666666666667
2.2600000000000002,1.2666666666666666
2.262,1.0666666666666667
2.2640000000000002,1.2666666666666666
2.266,1.5
2.2680000000000002,1.3333333333333333
2.27,1.3666666666666667
2.2720000000000002,1.8666666666666667
2.274,1.5
2.2760000000000002,0.9
2.278,0.8333333333333334
2.2800000000000002,1.7333333333333334
2.282,1.1666666666666667
2.2840000000000003,0.9666666666666667
2.286,1.0
2.2880000000000003,1.2
2.29,-0.16666666666666666
2.2920000000000003,0.36666666666666664
2.294,0.7
2.2960000000000003,1.0
2.298,0.9666666666666667
2.3000000000000003,1.2333333333333334
2.302,1.7666666666666666
2.3040000000000003,1.6333333333333333
2.306,1.4
2.308,1.0333333333333334
2.31,0.9
2.312,1.1333333333333333
2.314,1.3333333333333333
2.316,1.8
2.318,1.2333333333333334
2.32,1.2666666666666666
2.322,1.2666666666666666
2.324,1.2
2.326,1.2
2.328,1.0
2.33,1.0333333333333334
2.332,1.3
2.334,1.2666666666666666
2.336,1.3333333333333333
2.338,1.2666666666666666
2.34,1.6666666666666667
2.342,1.5333333333333334
2.344,0.9333333333333333
2.346,1.1666666666666667
2.348,1.1
2.35,1.5666666666666667
2.352,1.7
2.354,1.5333333333333334
2.356,1.2666666666666666
2.358,1.4
2.36,0.9333333333333333
2.362,0.6666666666666666
2.364,0.5
2.366,1.2
2.368,1.4
2.37,1.2
2.372,1.2666666666666666
2.374,1.1666666666666667
2.376,0.8
2.378,0.7666666666666667
2.38,0.9666666666666667
2.382,0.8
2.384,1.4
2.386,1.7666666666666666
2.388,1.6333333333333333
2.39,1.2
2.392,1.2666666666666666
2.394,1.3
2.396,1.2333333333333334
2.398,1.6666666666666667
2.4,0.9333333333333333
2.402,1.0666666666666667
2.404,2.033333333333333
2.406,1.5
2.408,1.3666666666666667
2.41,0.9
2.412,1.2666666666666666
2.414,1.6666666666666667
2.416,1.5333333333333334
2.418,2.066666666666667
2.42,1.7666666666666666
2.422,1.7333333333333334
2.424,1.7
2.426,1.7666666666666666
2.428,1.8333333333333333
2.43,1.6333333333333333
2.432,1.3
2.434,1.2
2.436,1.9
2.438,1.4333333333333333
2.44,1.5333333333333334
2.442,2.2
2.444,1.7
2.446,1.9
2.448,1.5333333333333334
2.45,1.4
2.452,2.3666666666666667
2.454,1.6666666666666667
2.456,1.5
2.458,1.5666666666666667
2.46,1.6
2.462,1.1666666666666667
2.464,1.2666666666666666
2.466,1.5
2.468,0.9666666666666667
2.47,1.0333333333333334
2.472,1.4
2.474,1.2333333333333334
2.476,0.8666666666666667
2.478,1.0666666666666667
2.48,0.43333333333333335
2.482,0.9666666666666667
2.484,0.8666666666666667
2.486,1.1
2.488,1.8
2.49,1.5
2.492,1.4
2.494,1.3
2.496,0.9
2.498,1.2
2.5,1.4333333333333333
2.5020000000000002,1.1
2.504,0.7333333333333333
2.5060000000000002,0.8
2.508,1.4
2.5100000000000002,1.4333333333333333
2.512,1.6333333333333333
2.5140000000000002,1.2
2.516,1.0333333333333334
2.5180000000000002,0.5333333333333333
2.52,0.8333333333333334
2.5220000000000002,1.0333333333333334
2.524,1.4
2.5260000000000002,1.4333333333333333
2.528,1.4
2.5300000000000002,1.4
2.532,0.5333333333333333
2.5340000000000003,0.6
2.536,1.3666666666666667
2.5380000000000003,1.9
2.54,1.9666666666666666
2.5420000000000003,1.6333333333333333
2.544,2.066666666666667
2.5460000000000003,3.3
2.548,4.033333333333333
2.5500000000000003,5.266666666666667
2.552,6.333333333333333
2.5540000000000003,6.866666666666666
2.556,7.4
2.5580000000000003,7.233333333333333
2.56,6.233333333333333
2.562,4.6
2.564,2.9
2.566,1.8333333333333333
2.568,0.6333333333333333
2.57,0.0
2.572,0.06666666666666667
2.574,0.13333333333333333
2.576,0.43333333333333335
2.578,0.3333333333333333
2.58,0.43333333333333335
2.582,0.2
2.584,0.5666666666666667
2.586,0.8666666666666667
2.588,1.1
2.59,1.0666666666666667
2.592,0.7333333333333333
2.594,1.7666666666666666
2.596,0.6666666666666666
2.598,0.8666666666666667
2.6,0.7666666666666667
2.602,0.7
2.604,1.2
2.606,1.1333333333333333
2.608,1.0
2.61,1.2333333333333334
2.612,1.0
2.614,0.8333333333333334
2.616,0.9666666666666667
2.618,1.7333333333333334
2.62,1.6
2.622,1.0333333333333334
2.624,1.8333333333333333
2.626,1.0666666666666667
2.628,1.2
2.63,1.6333333333333333
2.632,1.3666666666666667
2.634,1.3
2.636,1.3666666666666667
2.638,0.8
2.64,0.8333333333333334
2.642,0.8
2.644,1.0333333333333334
2.646,1.9
2.648,1.8
2.65,1.2
2.652,1.8333333333333333
2.654,1.6666666666666667
2.656,2.1
2.658,1.5
2.66,1.3333333333333333
2.662,1.2333333333333334
2.664,1.3666666666666667
2.666,1.5
2.668,1.9
2.67,1.4
2.672,1.6
2.674,0.7333333333333333
2.676,1.6
2.678,1.3333333333333333
2.68,2.1666666666666665
2.682,2.066666666666667
2.684,1.9
2.686,1.7
2.688,1.0
2.69,1.3333333333333333
2.692,1.1666666666666667
2.694,1.4666666666666666
2.696,1.8333333333333333
2.698,1.9333333333333333
2.7,2.1333333333333333
2.702,1.3666666666666667
2.704,1.2333333333333334
2.706,1.9666666666666666
2.708,1.7666666666666666
2.71,1.8666666666666667
2.712,1.6
2.714,2.066666666666667
2.716,1.9333333333333333
2.718,1.4333333333333333
2.72,2.3666666666666667
2.722,2.0
2.724,1.9666666666666666
2.726,1.6666666666666667
2.728,1.8666666666666667
2.73,2.066666666666667
2.732,2.1
2.734,2.033333333333333
2.736,2.7
2.738,2.6
2.74,2.2
2.742,2.4
2.744,1.9333333333333333
2.746,1.6666666666666667
2.748,1.8
2.75,2.3666666666666667
2.7520000000000002,1.9666666666666666
2.754,2.3
2.7560000000000002,2.1666666666666665
2.758,2.0
2.7600000000000002,2.4
2.762,2.3666666666666667
2.7640000000000002,2.2333333333333334
2.766,1.7666666666666666
2.7680000000000002,1.6333333333333333
2.77,2.2333333333333334
2.7720000000000002,2.2
2.774,2.2
2.7760000000000002,2.966666666666667
2.778,2.8666666666666667
2.7800000000000002,2.0
2.782,1.6666666666666667
2.7840000000000003,2.033333333333333
2.786,2.2333333333333334
2.7880000000000003,2.2666666666666666
2.79,1.8333333333333333
2.7920000000000003,2.466666666666667
2.794,3.1333333333333333
2.7960000000000003,2.6333333333333333
2.798,2.2
2.8000000000000003,2.533333333333333
2.802,1.8333333333333333
2.8040000000000003,2.7666666666666666
2.806,1.8666666666666667
2.8080000000000003,2.9
2.81,1.7333333333333334
2.8120000000000003,1.8333333333333333
2.814,2.9
2.816,3.433333333333333
2.818,2.033333333333333
2.82,2.1
2.822,2.3333333333333335
2.824,2.7
2.826,2.6666666666666665
2.828,2.2666666666666666
2.83,1.7
2.832,2.533333333333333
2.834,2.3333333333333335
2.836,2.0
2.838,2.2666666666666666
2.84,2.2666666666666666
2.842,1.9333333333333333
2.844,2.3
2.846,2.566666666666667
2.848,2.3
2.85,1.8
2.852,2.3
2.854,2.1333333333333333
2.856,1.9
2.858,1.8333333333333333
2.86,1.7333333333333334
2.862,1.7
2.864,1.7666666666666666
2.866,1.2333333333333334
2.868,2.1333333333333333
2.87,1.9666666666666666
2.872,1.5333333333333334
2.874,1.6333333333333333
2.876,1.1333333333333333
2.878,1.4
2.88,1.8333333333333333
2.882,2.1
2.884,1.8333333333333333
2.886,1.1666666666666667
2.888,1.9666666666666666
2.89,1.7
2.892,1.8666666666666667
2.894,1.9666666666666666
2.896,1.8666666666666667
2.898,1.8
2.9,1.1
2.902,1.0333333333333334
2.904,1.4
2.906,1.4
2.908,1.3666666666666667
2.91,1.6666666666666667
2.912,1.5333333333333334
2.914,1.3333333333333333
2.916,0.8666666666666667
2.918,1.3666666666666667
2.92,1.8666666666666667
2.922,1.6666666666666667
2.924,1.7666666666666666
2.926,0.5
2.928,1.6666666666666667
2.93,1.7
2.932,1.7666666666666666
2.934,1.4333333333333333
2.936,1.6
2.938,1.6666666666666667
2.94,1.2666666666666666
2.942,1.2
2.944,1.3666666666666667
2.946,1.5666666666666667
2.948,1.4666666666666666
2.95,1.9666666666666666
2.952,1.9333333333333333
2.954,1.8
2.956,1.3333333333333333
2.958,0.9
2.96,1.4333333333333333
2.962,1.7
2.964,1.4333333333333333
2.966,0.8666666666666667
2.968,0.4666666666666667
2.97,1.9666666666666666
2.972,2.033333333333333
2.974,2.033333333333333
2.976,1.7666666666666666
2.978,1.8333333333333333
2.98,1.8
2.982,1.8
2.984,1.5333333333333334
2.986,1.9
2.988,1.6333333333333333
2.99,1.0
2.992,1.5333333333333334
2.994,1.4666666666666666
2.996,1.0
2.998,1.6666666666666667
3.0,1.7
3.0020000000000002,1.5333333333333334
3.004,1.4666666666666666
3.0060000000000002,1.3333333333333333
3.008,1.6333333333333333
3.0100000000000002,1.3
3.012,2.1333333333333333
3.0140000000000002,1.4666666666666666
3.016,1.5
3.0180000000000002,1.6
3.02,1.0
3.0220000000000002,1.2
3.024,1.3333333333333333
3.0260000000000002,1.6
3.028,1.6
3.0300000000000002,1.8666666666666667
3.032,1.6333333333333333
3.0340000000000003,1.4666666666666666
3.036,1.0333333333333334
3.0380000000000003,0.9666666666666667
3.04,1.3
3.0420000000000003,1.3333333333333333
3.044,1.2666666666666666
3.0460000000000003,1.1666666666666667
3.048,0.8333333333333334
3.0500000000000003,1.1
3.052,2.3666666666666667
3.0540000000000003,1.1666666666666667
3.056,1.0333333333333334
3.0580000000000003,1.5333333333333334
3.06,1.6333333333333333
3.0620000000000003,1.1333333333333333
3.064,0.0
3.0660000000000003,1.3666666666666667
3.068,1.1666666666666667
3.0700000000000003,1.3
3.072,1.7
3.074,1.2666666666666666
3.076,1.2
3.078,1.3666666666666667
3.08,0.6
3.082,0.8
3.084,0.7666666666666667
3.086,0.8333333333333334
3.088,1.0333333333333334
3.09,1.4333333333333333
3.092,1.4666666666666666
3.094,1.4
3.096,1.3333333333333333
3.098,1.1666666666666667
3.1,1.4333333333333333
3.102,1.7333333333333334
3.104,1.5
3.106,2.1
3.108,2.1333333333333333
3.11,1.4333333333333333
3.112,1.8666666666666667
3.114,2.1
3.116,2.533333333333333
3.118,1.8333333333333333
3.12,0.9
3.122,1.2333333333333334
3.124,1.2666666666666666
3.126,1.2333333333333334
3.128,1.3333333333333333
3.13,0.6666666666666666
3.132,1.8
3.134,1.9333333333333333
3.136,1.8
3.138,1.5666666666666667
3.14,2.066666666666667
3.142,1.7666666666666666
3.144,2.2
3.146,2.433333333333333
3.148,1.3666666666666667
3.15,1.3666666666666667
3.152,1.3666666666666667
3.154,1.4
3.156,1.7666666666666666
3.158,1.7333333333333334
3.16,1.8
3.162,1.9333333333333333
3.164,1.8666666666666667
3.166,1.3666666666666667
3.168,1.4333333333333333
3.17,1.5666666666666667
3.172,1.8333333333333333
3.174,2.433333333333333
3.176,1.7666666666666666
3.178,1.7
3.18,0.6666666666666666
3.182,1.8333333333333333
3.184,1.5666666666666667
3.186,1.4333333333333333
3.188,0.9333333333333333
3.19,1.1333333333333333
3.192,0.9
3.194,1.1666666666666667
3.196,1.1333333333333333
3.198,0.9
3.2,0.7
3.202,0.8
3.204,1.2666666666666666
3.206,0.5
3.208,0.8
3.21,0.5333333333333333
3.212,0.6
3.214,1.2
3.216,0.6666666666666666
3.218,0.6666666666666666
3.22,1.0333333333333334
3.222,1.4
3.224,1.0333333333333334
3.226,0.9333333333333333
3.228,0.5333333333333333
3.23,0.7
3.232,0.8666666666666667
3.234,0.8666666666666667
3.236,0.7
3.238,0.9333333333333333
3.24,0.9
3.242,0.8666666666666667
3.244,0.8
3.246,0.7
3.248,0.5333333333333333
3.25,0.43333333333333335
3.2520000000000002,0.23333333333333334
3.254,0.7333333333333333
3.2560000000000002,1.0
3.258,0.5666666666666667
3.2600000000000002,0.9333333333333333
3.262,1.6
3.2640000000000002,2.1
3.266,2.7
3.2680000000000002,3.7333333333333334
3.27,4.933333333333334
3.2720000000000002,5.333333333333333
3.274,6.366666666666666
3.2760000000000002,6.866666666666666
3.278,5.933333333333334
3.2800000000000002,5.433333333333334
3.282,5.266666666666667
3.2840000000000003,4.433333333333334
3.286,2.5
3.2880000000000003,0.5
3.29,-0.06666666666666667
3.2920000000000003,-0.36666666666666664
3.294,0.03333333333333333
3.2960000000000003,-0.3333333333333333
3.298,-0.4
3.3000000000000003,-1.0
3.302,-0.43333333333333335
3.3040000000000003,0.0
3.306,-0.5
3.3080000000000003,0.06666666666666667
3.31,0.36666666666666664
3.3120000000000003,0.3
3.314,0.1
3.3160000000000003,0.26666666666666666
3.318,0.6
3.3200000000000003,0.9333333333333333
3.322,0.16666666666666666
3.3240000000000003,-0.3
3.326,0.26666666666666666
3.3280000000000003,0.0
3.33,0.7666666666666667
3.332,0.5666666666666667
3.334,0.4
3.336,1.1333333333333333
3.338,1.3333333333333333
3.34,0.9666666666666667
3.342,0.6666666666666666
3.344,0.6333333333333333
3.346,0.7
3.348,0.36666666666666664
3.35,0.4666666666666667
3.352,0.9333333333333333
3.354,0.9
3.356,1.0333333333333334
3.358,1.2666666666666666
3.36,1.3
3.362,0.9333333333333333
3.364,0.7666666666666667
3.366,0.7666666666666667
3.368,0.7333333333333333
3.37,-0.3333333333333333
3.372,1.0
3.374,0.8
3.376,0.9666666666666667
3.378,0.8333333333333334
3.38,0.5333333333333333
3.382,1.0666666666666667
3.384,1.0
3.386,1.0
3.388,0.9
3.39,0.6
3.392,1.1
3.394,1.5666666666666667
3.396,1.6666666666666667
3.398,0.8333333333333334
3.4,0.36666666666666664
3.402,1.1
3.404,1.3333333333333333
3.406,0.8
3.408,0.9666666666666667
3.41,1.6333333333333333
3.412,0.8666666666666667
3.414,1.1
3.416,0.9
3.418,0.7333333333333333
3.42,0.8
3.422,1.5666666666666667
3.424,1.4333333333333333
3.426,1.8333333333333333
3.428,1.9
3.43,1.7333333333333334
3.432,0.6666666666666666
3.434,-0.13333333333333333
3.436,1.2333333333333334
3.438,1.7666666666666666
3.44,1.6
3.442,1.4666666666666666
3.444,1.9
3.446,1.9333333333333333
3.448,1.3666666666666667
3.45,1.5
3.452,1.3666666666666667
3.454,1.1
3.456,1.6666666666666667
3.458,2.066666666666667
3.46,1.9666666666666666
3.462,1.2666666666666666
3.464,0.8333333333333334
3.466,1.3666666666666667
3.468,1.2
3.47,1.4666666666666666
3.472,1.4333333333333333
3.474,1.2333333333333334
3.476,1.3
3.478,1.7666666666666666
3.48,1.8
3.482,1.9666666666666666
3.484,2.3666666666666667
3.486,2.433333333333333
3.488,2.1666666666666665
3.49,2.066666666666667
3.492,1.9666666666666666
3.494,2.066666666666667
3.496,1.9333333333333333
3.498,1.9666666666666666
3.5,1.9666666666666666
3.5020000000000002,2.1333333333333333
3.504,1.9
3.5060000000000002,2.1666666666666665
3.508,2.1
3.5100000000000002,1.8333333333333333
3.512,1.9666666666666666
3.5140000000000002,1.9333333333333333
3.516,2.2333333333333334
3.5180000000000002,2.033333333333333
3.52,2.2333333333333334
3.5220000000000002,1.9
3.524,1.7
3.5260000000000002,2.433333333333333
3.528,2.6333333333333333
3.5300000000000002,2.933333333333333
3.532,2.2
3.5340000000000003,1.7
3.536,1.6
3.5380000000000003,2.033333333333333
3.54,2.7
3.5420000000000003,1.8666666666666667
3.544,1.7333333333333334
3.5460000000000003,1.7666666666666666
3.548,2.533333333333333
3.5500000000000003,2.6
3.552,2.8333333333333335
3.5540000000000003,2.3333333333333335
3.556,2.1666666666666665
3.5580000000000003,1.6666666666666667
3.56,1.4666666666666666
3.5620000000000003,1.5333333333333334
3.564,2.3666666666666667
3.5660000000000003,1.4333333333333333
3.568,1.7
3.5700000000000003,1.5333333333333334
3.572,1.1666666666666667
3.5740000000000003,1.3333333333333333
3.576,1.6666666666666667
3.5780000000000003,2.1666666666666665
3.58,1.7333333333333334
3.5820000000000003,1.9666666666666666
3.584,1.0
3.586,0.9
3.588,1.0666666666666667
3.59,1.2
3.592,1.4666666666666666
3.594,1.0
3.596,1.2333333333333334
3.598,1.2666666666666666
3.6,0.9333333333333333
3.602,0.8333333333333334
3.604,1.3666666666666667
3.606,1.5
3.608,1.7333333333333334
3.61,1.0333333333333334
3.612,1.5333333333333334
3.614,1.2
3.616,1.1666666666666667
3.618,0.7666666666666667
3.62,1.1
3.622,1.2666666666666666
3.624,0.8666666666666667
3.626,1.3
3.628,1.2666666666666666
3.63,1.3666666666666667
3.632,0.9333333333333333
3.634,0.4
3.636,1.2333333333333334
3.638,1.6666666666666667
3.64,1.3666666666666667
3.642,1.4
3.644,1.2
3.646,1.4
3.648,1.9333333333333333
3.65,1.9333333333333333
3.652,1.4
3.654,-0.13333333333333333
3.656,1.4333333333333333
3.658,1.7333333333333334
3.66,1.5
3.662,1.1666666666666667
3.664,1.2
3.666,1.1333333333333333
3.668,1.3333333333333333
3.67,1.0
3.672,1.1
3.674,1.2666666666666666
3.676,1.3666666666666667
3.678,1.2
3.68,1.3666666666666667
3.682,1.2333333333333334
3.684,1.8666666666666667
3.686,1.4
3.688,1.0666666666666667
3.69,0.7666666666666667
3.692,0.8666666666666667
3.694,1.3666666666666667
3.696,1.4
3.698,1.9666666666666666
3.7,1.9333333333333333
3.702,1.2
3.704,1.2666666666666666
3.706,1.6
3.708,1.4333333333333333
3.71,1.4666666666666666
3.712,1.4333333333333333
3.714,0.9333333333333333
3.716,1.2
3.718,1.5
3.72,1.4
3.722,1.4
3.724,1.6333333333333333
3.726,1.9333333333333333
3.728,1.8
3.73,1.5666666666666667
3.732,1.4666666666666666
3.734,1.7666666666666666
3.736,1.6
3.738,0.9666666666666667
3.74,0.03333333333333333
3.742,0.5
3.744,1.7333333333333334
3.746,1.3
3.748,1.5333333333333334
3.75,1.8
3.7520000000000002,1.7333333333333334
3.754,1.7333333333333334
3.7560000000000002,1.3333333333333333
3.758,1.1666666666666667
3.7600000000000002,1.2666666666666666
3.762,1.4666666666666666
3.7640000000000002,1.2666666666666666
3.766,1.3
3.7680000000000002,0.9333333333333333
3.77,1.2333333333333334
3.7720000000000002,1.0
3.774,0.9666666666666667
3.7760000000000002,1.6666666666666667
3.778,2.2333333333333334
3.7800000000000002,2.2333333333333334
3.782,1.7333333333333334
3.7840000000000003,1.3666666666666667
3.786,0.6333333333333333
3.7880000000000003,1.2333333333333334
3.79,0.7333333333333333
3.7920000000000003,0.7666666666666667
3.794,0.9666666666666667
3.7960000000000003,1.6
3.798,1.5333333333333334
3.8000000000000003,1.2
3.802,1.7
3.8040000000000003,1.2666666666666666
3.806,1.7
3.8080000000000003,1.3
3.81,0.7666666666666667
3.8120000000000003,0.8
3.814,0.6
3.8160000000000003,1.5333333333333334
3.818,1.0
3.8200000000000003,0.9666666666666667
3.822,1.0
3.8240000000000003,1.1
3.826,1.5
3.8280000000000003,1.7666666666666666
3.83,1.6666666666666667
3.8320000000000003,1.9
3.834,2.0
3.8360000000000003,1.9333333333333333
3.838,1.6666666666666667
3.84,1.8666666666666667
3.842,2.4
3.844,2.4
3.846,1.8666666666666667
3.848,0.9333333333333333
3.85,0.9666666666666667
3.852,2.033333333333333
3.854,2.2333333333333334
3.856,2.6
3.858,2.0
3.86,0.9333333333333333
3.862,2.066666666666667
3.864,2.3666666666666667
3.866,1.7666666666666666
3.868,1.5666666666666667
3.87,1.7
3.872,1.5666666666666667
3.874,1.7666666666666666
3.876,1.3
3.878,1.8666666666666667
3.88,1.9
3.882,1.2333333333333334
3.884,1.7
3.886,2.2
3.888,2.1333333333333333
3.89,2.066666666666667
3.892,1.7666666666666666
3.894,1.6333333333333333
3.896,1.7333333333333334
3.898,1.7333333333333334
3.9,1.3666666666666667
3.902,1.9333333333333333
3.904,2.2333333333333334
3.906,2.1
3.908,1.7
3.91,1.4333333333333333
3.912,1.1333333333333333
3.914,1.0333333333333334
3.916,1.4333333333333333
3.918,1.3666666666666667
3.92,1.6333333333333333
3.922,1.7333333333333334
3.924,1.5333333333333334
3.926,1.9333333333333333
3.928,2.033333333333333
3.93,1.1666666666666667
3.932,0.6
3.934,0.8333333333333334
3.936,0.7
3.938,0.13333333333333333
3.94,0.0
3.942,0.8333333333333334
3.944,1.6
3.946,1.3
3.948,1.1666666666666667
3.95,1.8
3.952,1.0
3.954,0.7333333333333333
3.956,0.8
3.958,1.2333333333333334
3.96,1.2333333333333334
3.962,1.0333333333333334
3.964,1.1666666666666667
3.966,1.0333333333333334
3.968,1.3
3.97,0.9666666666666667
3.972,1.0
3.974,0.7666666666666667
3.976,0.8
3.978,0.6666666666666666
3.98,0.5333333333333333
3.982,1.1
3.984,1.4666666666666666
3.986,2.033333333333333
3.988,2.1333333333333333
3.99,2.5
3.992,3.033333333333333
3.994,3.466666666666667
3.996,4.066666666666666
3.998,4.633333333333334
4.0,5.0
4.002,5.7
4.0040000000000004,6.5
4.006,6.6
4.008,6.433333333333334
4.01,5.1
4.0120000000000005,4.066666666666666
4.014,2.933333333333333
4.016,1.4
4.018,0.43333333333333335
4.0200000000000005,0.8666666666666667
4.022,0.5666666666666667
4.024,0.4
4.026,0.8
4.0280000000000005,-0.1
4.03,-0.03333333333333333
4.032,0.3
4.034,0.7333333333333333
4.0360000000000005,0.4666666666666667
4.038,0.8
4.04,0.5
4.042,1.4333333333333333
4.0440000000000005,1.0
4.046,1.1333333333333333
4.048,1.3
4.05,1.1333333333333333
4.0520000000000005,1.2
4.054,0.06666666666666667
4.056,0.3
4.058,0.8
4.0600000000000005,1.4333333333333333
4.062,1.2666666666666666
4.064,1.1666666666666667
4.066,1.4333333333333333
4.0680000000000005,0.9333333333333333
4.07,1.4
4.072,1.3
4.074,0.7666666666666667
4.0760000000000005,0.9
4.078,1.0666666666666667
4.08,1.2666666666666666
4.082,1.3666666666666667
4.0840000000000005,1.6333333333333333
4.086,2.033333333333333
4.088,1.4666666666666666
4.09,0.8666666666666667
4.0920000000000005,0.7666666666666667
4.094,0.9666666666666667
4.096,1.0333333333333334
4.098,0.9
4.1,1.5
4.102,1.4333333333333333
4.104,1.1666666666666667
4.106,1.0
4.108,2.1666666666666665
4.11,1.4666666666666666
4.112,1.2666666666666666
4.114,1.0333333333333334
4.116,1.0333333333333334
4.118,1.2333333333333334
4.12,1.0333333333333334
4.122,1.4333333333333333
4.124,1.7333333333333334
4.126,2.066666666666667
4.128,1.7666666666666666
4.13,1.9333333333333333
4.132,1.0
4.134,0.9666666666666667
4.136,1.7333333333333334
4.138,1.2666666666666666
4.14,1.4333333333333333
4.142,1.8333333333333333
4.144,2.1
4.146,1.8
4.148,1.7666666666666666
4.15,1.5666666666666667
4.152,1.2333333333333334
4.154,0.9333333333333333
4.156,1.1666666666666667
4.158,2.2666666666666666
4.16,1.3333333333333333
4.162,1.9
4.164,2.033333333333333
4.166,2.066666666666667
4.168,1.8333333333333333
4.17,1.6666666666666667
4.172,2.2666666666666666
4.174,2.033333333333333
4.176,2.466666666666667
4.178,1.8666666666666667
4.18,1.8333333333333333
4.182,2.2
4.184,2.3
4.186,2.1
4.188,2.566666666666667
4.19,2.466666666666667
4.192,2.6666666666666665
4.194,2.5
4.196,2.5
4.198,2.1333333333333333
4.2,2.5
4.202,1.4333333333333333
4.204,2.3
4.206,3.1
4.208,3.0
4.21,2.433333333333333
4.212,2.3333333333333335
4.214,2.6
4.216,3.0
4.218,2.566666666666667
4.22,2.4
4.222,2.2333333333333334
4.224,2.3666666666666667
4.226,2.3666666666666667
4.228,2.8666666666666667
4.23,2.7
4.232,2.7666666666666666
4.234,2.4
4.236,2.2
4.238,2.2
4.24,2.6333333333333333
4.242,3.2
4.244,3.3
4.246,3.1
4.248,3.466666666666667
4.25,2.533333333333333
4.252,2.6
4.2540000000000004,3.2333333333333334
4.256,2.966666666666667
4.258,2.6666666666666665
4.26,2.1
4.2620000000000005,2.8333333333333335
4.264,3.466666666666667
4.266,3.4
4.268,2.2666666666666666
4.2700000000000005,2.6666666666666665
4.272,2.2666666666666666
4.274,2.4
4.276,2.433333333333333
4.2780000000000005,2.933333333333333
4.28,2.966666666666667
4.282,2.433333333333333
4.284,2.933333333333333
4.2860000000000005,3.1666666666666665
4.288,2.6
4.29,2.933333333333333
4.292,3.0
4.2940000000000005,2.3333333333333335
4.296,2.1333333333333333
4.298,2.3333333333333335
4.3,2.2333333333333334
4.3020000000000005,2.433333333333333
4.304,2.3333333333333335
4.306,2.533333333333333
4.308,2.3666666666666667
4.3100000000000005,2.433333333333333
4.312,2.5
4.314,2.3
4.316,2.566666666666667
4.3180000000000005,2.5
4.32,2.033333333333333
4.322,2.033333333333333
4.324,2.3333333333333335
4.3260000000000005,2.033333333333333
4.328,2.2666666666666666
4.33,2.7333333333333334
4.332,2.433333333333333
4.3340000000000005,2.1333333333333333
4.336,1.9
4.338,2.466666666666667
4.34,1.8666666666666667
4.3420000000000005,1.3333333333333333
4.344,1.8666666666666667
4.346,1.7
4.348,1.1666666666666667
4.3500000000000005,1.4
4.352,2.7666666666666666
4.354,2.8
4.356,1.7333333333333334
4.358,1.9333333333333333
4.36,2.3
4.362,2.566666666666667
4.364,2.7666666666666666
4.366,2.1
4.368,1.9666666666666666
4.37,2.0
4.372,2.2666666666666666
4.374,1.6666666666666667
4.376,1.3333333333333333
4.378,1.5333333333333334
4.38,2.3333333333333335
4.382,2.6333333333333333
4.384,2.3333333333333335
4.386,1.4666666666666666
4.388,2.433333333333333
4.39,2.3
4.392,2.3333333333333335
4.394,2.533333333333333
4.396,2.033333333333333
4.398,2.2666666666666666
4.4,2.2666666666666666
4.402,2.066666666666667
4.404,2.1333333333333333
4.406,1.5666666666666667
4.408,1.2
4.41,2.066666666666667
4.412,2.3
4.414,2.3333333333333335
4.416,2.1666666666666665
4.418,1.7333333333333334
4.42,1.5666666666666667
4.422,1.9
4.424,1.6666666666666667
4.426,1.7333333333333334
4.428,1.8666666666666667
4.43,1.7666666666666666
4.432,1.7666666666666666
4.434,2.066666666666667
4.436,2.2666666666666666
4.438,2.4
4.44,1.7333333333333334
4.442,1.7
4.444,2.0
4.446,2.433333333333333
4.448,2.3666666666666667
4.45,2.066666666666667
4.452,2.3333333333333335
4.454,2.5
4.456,2.1333333333333333
4.458,2.033333333333333
4.46,1.9666666666666666
4.462,1.6
4.464,1.6333333333333333
4.466,2.1666666666666665
4.468,2.6
4.47,2.6666666666666665
4.472,2.2333333333333334
4.474,2.2333333333333334
4.476,2.5
4.478,2.2666666666666666
4.48,2.1666666666666665
4.482,2.033333333333333
4.484,2.3333333333333335
4.486,1.8333333333333333
4.488,3.433333333333333
4.49,1.9666666666666666
4.492,1.9333333333333333
4.494,2.0
4.496,2.033333333333333
4.498,2.1333333333333333
4.5,1.9666666666666666
4.502,2.3
4.5040000000000004,2.466666666666667
4.506,2.566666666666667
4.508,2.433333333333333
4.51,1.6333333333333333
4.5120000000000005,1.6666666666666667
4.514,1.8666666666666667
4.516,0.9333333333333333
4.518,1.8333333333333333
4.5200000000000005,1.9666666666666666
4.522,1.8666666666666667
4.524,2.6666666666666665
4.526,2.2
4.5280000000000005,1.6666666666666667
4.53,1.7666666666666666
4.532,2.2666666666666666
4.534,2.7666666666666666
4.5360000000000005,2.3333333333333335
4.538,2.2666666666666666
4.54,1.6
4.542,1.9666666666666666
4.5440000000000005,1.3666666666666667
4.546,1.7
4.548,2.2666666666666666
4.55,2.033333333333333
4.5520000000000005,1.8333333333333333
4.554,2.033333333333333
4.556,2.466666666666667
4.558,2.1
4.5600000000000005,1.9
4.562,1.7333333333333334
4.564,2.033333333333333
4.566,2.8
4.5680000000000005,2.5
4.57,2.1
4.572,2.5
4.574,2.5
4.5760000000000005,2.3
4.578,2.6333333333333333
4.58,2.5
4.582,2.7333333333333334
4.5840000000000005,2.8666666666666667
4.586,2.8666666666666667
4.588,2.7
4.59,2.4
4.5920000000000005,3.3666666666666667
4.594,2.0
4.596,2.466666666666667
4.598,2.3333333333333335
4.6000000000000005,2.1666666666666665
4.602,1.7333333333333334
4.604,2.1666666666666665
4.606,2.9
4.6080000000000005,2.7333333333333334
4.61,2.2666666666666666
4.612,2.2666666666666666
4.614,1.7
4.616,1.9333333333333333
4.618,2.2
4.62,2.1333333333333333
4.622,2.433333333333333
4.624,2.6333333333333333
4.626,2.1
4.628,2.033333333333333
4.63,1.4
4.632,0.7
4.634,1.2333333333333334
4.636,1.8
4.638,1.5666666666666667
4.64,1.6
4.642,1.6333333333333333
4.644,1.9
4.646,1.7
4.648,1.9333333333333333
4.65,1.6666666666666667
4.652,1.5
4.654,1.6
4.656,1.5333333333333334
4.658,2.1666666666666665
4.66,2.2666666666666666
4.662,1.2333333333333334
4.664,1.1333333333333333
4.666,1.4333333333333333
4.668,1.7
4.67,1.8666666666666667
4.672,1.8333333333333333
4.674,1.5
4.676,1.4333333333333333
4.678,1.6333333333333333
4.68,1.8
4.682,1.9
4.684,3.1333333333333333
4.686,4.166666666666667
4.688,5.333333333333333
4.69,5.2
4.692,5.866666666666666
4.694,6.933333333333334
4.696,7.1
4.698,7.3
4.7,6.8
4.702,5.833333333333333
4.704,4.466666666666667
4.706,2.933333333333333
4.708,2.0
4.71,1.1666666666666667
4.712,0.6
4.714,0.06666666666666667
4.716,0.36666666666666664
4.718,0.6666666666666666
4.72,0.3
4.722,-0.03333333333333333
4.724,0.7666666666666667
4.726,1.1
4.728,1.0666666666666667
4.73,1.4
4.732,1.2666666666666666
4.734,1.2666666666666666
4.736,1.8
4.738,1.0
4.74,0.4666666666666667
4.742,1.8
4.744,1.8666666666666667
4.746,1.7666666666666666
4.748,2.1666666666666665
4.75,1.4333333333333333
4.752,1.4333333333333333
4.7540000000000004,1.8
4.756,1.6
4.758,1.3666666666666667
4.76,1.3666666666666667
4.7620000000000005,1.9666666666666666
4.764,2.0
4.766,1.7
4.768,1.8666666666666667
4.7700000000000005,2.0
4.772,1.7333333333333334
4.774,1.6666666666666667
4.776,1.4
4.7780000000000005,1.6666666666666667
4.78,1.5
4.782,2.033333333333333
4.784,2.3333333333333335
4.7860000000000005,1.7666666666666666
4.788,2.6333333333333333
4.79,1.8666666666666667
4.792,0.7333333333333333
4.7940000000000005,0.8666666666666667
4.796,0.7666666666666667
4.798,1.3333333333333333
4.8,1.6333333333333333
4.8020000000000005,1.4333333333333333
4.804,1.6666666666666667
4.806,2.8
4.808,2.8333333333333335
4.8100000000000005,2.7
4.812,1.3666666666666667
4.814,0.6
4.816,0.6
4.8180000000000005,1.4333333333333333
4.82,2.0
4.822,1.8
4.824,1.7333333333333334
4.8260000000000005,1.6
4.828,1.5666666666666667
4.83,0.9333333333333333
4.832,1.5333333333333334
4.8340000000000005,2.933333333333333
4.836,2.433333333333333
4.838,2.3
4.84,2.1333333333333333
4.8420000000000005,2.966666666666667
4.844,2.6333333333333333
4.846,1.5
4.848,0.8333333333333334
4.8500000000000005,2.0
4.852,2.2
4.854,1.8666666666666667
4.856,2.1
4.8580000000000005,2.0
4.86,2.3
4.862,2.433333333333333
4.864,2.466666666666667
4.866,2.2
4.868,2.4
4.87,2.3
4.872,2.3333333333333335
4.874,2.3
4.876,2.3
4.878,2.2333333333333334
4.88,2.433333333333333
4.882,2.566666666666667
4.884,2.566666666666667
4.886,2.1333333333333333
4.888,2.1666666666666665
4.89,2.966666666666667
4.892,2.1666666666666665
4.894,2.566666666666667
4.896,3.1333333333333333
4.898,2.2666666666666666
4.9,3.0
4.902,2.9
4.904,2.5
4.906,2.3
4.908,2.0
4.91,2.7
4.912,1.8666666666666667
4.914,2.3666666666666667
4.916,2.3666666666666667
4.918,2.4
4.92,2.533333333333333
4.922,2.8666666666666667
4.924,2.933333333333333
4.926,2.8666666666666667
4.928,2.3333333333333335
4.93,2.1
4.932,2.2666666666666666
4.934,3.0
4.936,2.433333333333333
4.938,2.533333333333333
4.94,2.6666666666666665
4.942,3.2
4.944,2.8333333333333335
4.946,3.066666666666667
4.948,2.6666666666666665
4.95,2.3333333333333335
4.952,2.8
4.954,2.966666666666667
4.956,3.1666666666666665
4.958,3.1333333333333333
4.96,3.1333333333333333
4.962,2.8333333333333335
4.964,2.7333333333333334
4.966,2.933333333333333
4.968,2.7
4.97,2.433333333333333
4.972,2.7
4.974,2.1333333333333333
4.976,2.8666666666666667
4.978,2.9
4.98,2.8333333333333335
4.982,2.7
4.984,2.566666666666667
4.986,2.2666666666666666
4.988,2.6
4.99,2.466666666666667
4.992,2.3666666666666667
4.994,2.966666666666667
4.996,3.1666666666666665
4.998,2.3
5.0,2.533333333333333
5.002,1.0666666666666667
5.0040000000000004,2.3333333333333335
5.006,2.3333333333333335
5.008,1.1333333333333333
5.01,1.4333333333333333
5.0120000000000005,2.2666666666666666
5.014,2.4
5.016,1.7666666666666666
5.018,2.2666666666666666
5.0200000000000005,1.6333333333333333
5.022,1.5333333333333334
5.024,2.8333333333333335
5.026,2.1666666666666665
5.0280000000000005,1.9666666666666666
5.03,2.1333333333333333
5.032,1.9666666666666666
5.034,1.9
5.0360000000000005,1.7666666666666666
5.038,1.5666666666666667
5.04,2.1333333333333333
5.042,2.1666666666666665
5.0440000000000005,2.033333333333333
5.046,2.1
5.048,1.4
5.05,2.066666666666667
5.0520000000000005,1.8666666666666667
5.054,1.9
5.056,1.6666666666666667
5.058,2.1666666666666665
5.0600000000000005,2.1666666666666665
5.062,2.2
5.064,2.1666666666666665
5.066,2.1333333333333333
5.0680000000000005,1.9
5.07,1.2666666666666666
5.072,1.2333333333333334
5.074,1.8666666666666667
5.0760000000000005,2.1666666666666665
5.078,2.1666666666666665
5.08,1.9
5.082,1.8
5.0840000000000005,1.5333333333333334
5.086,1.6333333333333333
5.088,1.3
5.09,1.9666666666666666
5.0920000000000005,1.3333333333333333
5.094,1.5666666666666667
5.096,2.433333333333333
5.098,2.1666666666666665
5.1000000000000005,2.033333333333333
5.102,2.3
5.104,2.0
5.106,2.3333333333333335
5.1080000000000005,2.2666666666666666
5.11,1.2333333333333334
5.112,1.8666666666666667
5.114,2.533333333333333
5.1160000000000005,2.066666666666667
5.118,2.1
5.12,2.2666666666666666
5.122,1.9
5.124,1.1333333333333333
5.126,2.7666666666666666
5.128,2.6333333333333333
5.13,2.1
5.132,1.8666666666666667
5.134,1.8666666666666667
5.136,2.033333333333333
5.138,2.033333333333333
5.14,1.8333333333333333
5.142,2.1
5.144,2.2
5.146,2.3666666666666667
5.148,2.5
5.15,2.1
5.152,1.7333333333333334
5.154,1.8333333333333333
5.156,1.5666666666666667
5.158,2.3
5.16,2.433333333333333
5.162,2.2666666666666666
5.164,1.9666666666666666
5.166,2.1333333333333333
5.168,2.3
5.17,2.5
5.172,2.1666666666666665
5.174,1.8333333333333333
5.176,1.9666666666666666
5.178,1.3333333333333333
5.18,1.9
5.182,2.2666666666666666
5.184,2.1
5.186,2.1
5.188,2.1333333333333333
5.19,2.2
5.192,2.433333333333333
5.194,1.8666666666666667
5.196,2.2333333333333334
5.198,2.466666666666667
5.2,1.9666666666666666
5.202,1.3
5.204,2.0
5.206,1.9
5.208,1.8333333333333333
5.21,1.2333333333333334
5.212,1.4
5.214,1.4333333333333333
5.216,2.2333333333333334
5.218,2.1666666666666665
5.22,2.066666666666667
5.222,2.1333333333333333
5.224,1.9
5.226,1.8
5.228,2.0
5.23,2.1333333333333333
5.232,2.3333333333333335
5.234,2.5
5.236,2.0
5.238,2.3666666666666667
5.24,1.7333333333333334
5.242,1.7333333333333334
5.244,2.0
5.246,2.533333333333333
5.248,2.033333333333333
5.25,1.9333333333333333
5.252,2.2
5.2540000000000004,2.3
5.256,2.066666666666667
5.258,2.1666666666666665
5.26,2.433333333333333
5.2620000000000005,2.7666666666666666
5.264,2.7333333333333334
5.266,2.566666666666667
5.268,2.6
5.2700000000000005,2.6
5.272,2.433333333333333
5.274,2.2
5.276,2.1
5.2780000000000005,2.3
5.28,2.6333333333333333
5.282,2.566666666666667
5.284,2.5
5.2860000000000005,2.5
5.288,2.466666666666667
5.29,2.8666666666666667
5.292,2.6666666666666665
5.2940000000000005,2.4
5.296,2.066666666666667
5.298,2.1333333333333333
5.3,3.1666666666666665
5.3020000000000005,2.1333333333333333
5.304,2.8333333333333335
5.306,2.533333333333333
5.308,2.5
5.3100000000000005,2.6333333333333333
5.312,2.3666666666666667
5.314,2.0
5.316,1.9
5.3180000000000005,2.5
5.32,1.9666666666666666
5.322,2.6666666666666665
5.324,2.8333333333333335
5.3260000000000005,2.1333333333333333
5.328,1.2666666666666666
5.33,1.6333333333333333
5.332,2.2666666666666666
5.3340000000000005,1.4333333333333333
5.336,1.8333333333333333
5.338,2.1333333333333333
5.34,2.033333333333333
5.3420000000000005,1.8
5.344,1.6
5.346,2.1
5.348,1.6
5.3500000000000005,1.1666666666666667
5.352,0.8
5.354,2.1666666666666665
5.356,2.3
5.3580000000000005,2.3
5.36,1.7333333333333334
5.362,2.066666666666667
5.364,1.7333333333333334
5.3660000000000005,1.7
5.368,1.9333333333333333
5.37,1.7333333333333334
5.372,1.7666666666666666
5.3740000000000006,1.5333333333333334
5.376,1.9666666666666666
5.378,2.2
5.38,2.066666666666667
5.382,2.2
5.384,1.7333333333333334
5.386,2.0
5.388,1.9333333333333333
5.39,1.3
5.392,1.3
5.394,1.6333333333333333
5.396,2.6
5.398,2.0
5.4,2.533333333333333
5.402,3.1666666666666665
5.404,4.366666666666666
5.406,3.533333333333333
5.408,4.066666666666666
5.41,4.966666666666667
5.412,5.8
5.414,6.166666666666667
5.416,7.4
5.418,7.6
5.42,6.833333333333333
5.422,6.433333333333334
5.424,5.466666666666667
5.426,3.9
5.428,1.9666666666666666
5.43,0.5
5.432,0.3
5.434,0.5
5.436,0.5333333333333333
5.438,0.7
5.44,0.8
5.442,1.0333333333333334
5.444,1.1666666666666667
5.446,1.0
5.448,0.7666666666666667
5.45,1.1333333333333333
5.452,1.3
5.454,1.0333333333333334
5.456,1.2666666666666666
5.458,1.7333333333333334
5.46,1.7
5.462,1.6333333333333333
5.464,1.4333333333333333
5.466,1.2666666666666666
5.468,1.4333333333333333
5.47,1.8333333333333333
5.472,1.8
5.474,1.7666666666666666
5.476,1.6666666666666667
5.478,1.6333333333333333
5.48,1.2333333333333334
5.482,1.9
5.484,1.8333333333333333
5.486,0.9
5.488,0.6
5.49,1.6
5.492,2.2333333333333334
5.494,2.2333333333333334
5.496,1.9666666666666666
5.498,2.033333333333333
5.5,2.2
5.502,2.0
5.5040000000000004,2.033333333333333
5.506,1.6333333333333333
5.508,1.4666666666666666
5.51,1.8333333333333333
5.5120000000000005,2.033333333333333
5.514,1.7666666666666666
5.516,1.9333333333333333
5.518,2.1333333333333333
5.5200000000000005,2.7333333333333334
5.522,2.1333333333333333
5.524,1.7333333333333334
5.526,1.9
5.5280000000000005,1.9
5.53,1.9666666666666666
5.532,2.1666666666666665
5.534,2.2
5.5360000000000005,2.3
5.538,2.033333333333333
5.54,1.8666666666666667
5.542,2.1333333333333333
5.5440000000000005,1.7333333333333334
5.546,1.4333333333333333
5.548,1.2666666666666666
5.55,2.2666666666666666
5.5520000000000005,2.566666666666667
5.554,2.8
5.556,1.5
5.558,2.2333333333333334
5.5600000000000005,2.066666666666667
5.562,1.6333333333333333
5.564,1.4666666666666666
5.566,1.5
5.5680000000000005,1.6
5.57,1.7
5.572,2.4
5.574,1.9333333333333333
5.5760000000000005,2.533333333333333
5.578,2.433333333333333
5.58,2.1666666666666665
5.582,2.3666666666666667
5.5840000000000005,2.933333333333333
5.586,3.3666666666666667
5.588,2.433333333333333
5.59,1.6333333333333333
5.5920000000000005,1.2333333333333334
5.594,2.3
5.596,3.033333333333333
5.598,2.4
5.6000000000000005,2.533333333333333
5.602,2.8666666666666667
5.604,2.533333333333333
5.606,2.566666666666667
5.6080000000000005,2.2666666666666666
5.61,2.533333333333333
5.612,2.7666666666666666
5.614,2.933333333333333
5.6160000000000005,2.3333333333333335
5.618,2.8666666666666667
5.62,3.1
5.622,3.0
5.6240000000000006,3.1666666666666665
5.626,3.533333333333333
5.628,2.8333333333333335
5.63,2.6333333333333333
5.632,3.1
5.634,2.4
5.636,2.6666666666666665
5.638,2.6
5.64,3.466666666666667
5.642,2.6666666666666665
5.644,2.3666666666666667
5.646,2.966666666666667
5.648,2.8666666666666667
5.65,2.9
5.652,3.1666666666666665
5.654,3.066666666666667
5.656,3.066666666666667
5.658,3.3666666666666667
5.66,3.533333333333333
5.662,3.2
5.664,2.8
5.666,2.8333333333333335
5.668,2.8
5.67,2.3333333333333335
5.672,2.2
5.674,2.7333333333333334
5.676,3.066666666666667
5.678,3.2333333333333334
5.68,3.033333333333333
5.682,2.8666666666666667
5.684,2.6666666666666665
5.686,2.7
5.688,2.966666666666667
5.69,2.8666666666666667
5.692,2.8333333333333335
5.694,3.0
5.696,3.1666666666666665
5.698,2.6
5.7,2.3
5.702,2.7
5.704,2.6666666666666665
5.706,2.7666666666666666
5.708,3.066666666666667
5.71,2.7333333333333334
5.712,2.6
5.714,2.5
5.716,2.533333333333333
5.718,2.966666666666667
5.72,2.8666666666666667
5.722,2.8666666666666667
5.724,2.7
5.726,2.8666666666666667
5.728,2.7333333333333334
5.73,2.4
5.732,2.433333333333333
5.734,2.466666666666667
5.736,2.6333333333333333
5.738,2.8666666666666667
5.74,2.433333333333333
5.742,2.1666666666666665
5.744,2.566666666666667
5.746,2.433333333333333
5.748,2.2333333333333334
5.75,2.4
5.752,2.2666666666666666
5.7540000000000004,2.1
5.756,1.6666666666666667
5.758,1.5666666666666667
5.76,1.7333333333333334
5.7620000000000005,2.3
5.764,2.7333333333333334
5.766,2.4
5.768,1.6333333333333333
5.7700000000000005,2.5
5.772,2.566666666666667
5.774,2.066666666666667
5.776,2.0
5.7780000000000005,2.033333333333333
5.78,2.533333333333333
5.782,3.1
5.784,2.6333333333333333
5.7860000000000005,2.066666666666667
5.788,2.5
5.79,2.3666666666666667
5.792,2.2
5.7940000000000005,2.1333333333333333
5.796,2.1666666666666665
5.798,1.9333333333333333
5.8,2.1333333333333333
5.8020000000000005,2.0
5.804,2.8333333333333335
5.806,3.3333333333333335
5.808,2.6
5.8100000000000005,1.9333333333333333
5.812,2.066666666666667
5.814,2.3333333333333335
5.816,2.6333333333333333
5.8180000000000005,2.2666666666666666
5.82,2.466666666666667
5.822,2.2
5.824,2.4
5.8260000000000005,1.8666666666666667
5.828,2.2666666666666666
5.83,2.3
5.832,2.2333333333333334
5.8340000000000005,2.466666666666667
5.836,2.966666666666667
5.838,2.933333333333333
5.84,2.466666666666667
5.8420000000000005,2.2666666666666666
5.844,2.1666666666666665
5.846,2.3666666666666667
5.848,2.566666666666667
5.8500000000000005,1.9666666666666666
5.852,2.4
5.854,2.4
5.856,2.3666666666666667
5.8580000000000005,2.2333333333333334
5.86,2.466666666666667
5.862,2.2
5.864,2.2333333333333334
5.8660000000000005,2.6666666666666665
5.868,2.8666666666666667
5.87,3.1333333333333333
5.872,2.8
5.8740000000000006,3.066666666666667
5.876,2.6
5.878,2.433333333333333
5.88,2.6666666666666665
5.882000000000001,2.4
5.884,1.5666666666666667
5.886,2.2
5.888,2.433333333333333
5.89,2.6
5.892,2.433333333333333
5.894,1.9
5.896,1.9333333333333333
5.898,2.8333333333333335
5.9,2.7666666666666666
5.902,3.066666666666667
5.904,2.533333333333333
5.906,2.9
5.908,2.933333333333333
5.91,2.6666666666666665
5.912,2.3333333333333335
5.914,2.6333333333333333
5.916,2.6333333333333333
5.918,1.8666666666666667
5.92,2.2333333333333334
5.922,2.2333333333333334
5.924,2.5
5.926,1.4666666666666666
5.928,2.5
5.93,2.4
5.932,2.466666666666667
5.934,2.8
5.936,3.1
5.938,2.7666666666666666
5.94,2.1333333333333333
5.942,2.1
5.944,2.066666666666667
5.946,2.3666666666666667
5.948,2.433333333333333
5.95,2.6
5.952,2.5
5.954,2.2
5.956,2.8
5.958,2.533333333333333
5.96,2.6666666666666665
5.962,2.2666666666666666
5.964,2.3666666666666667
5.966,2.2666666666666666
5.968,2.2333333333333334
5.97,2.2
5.972,2.533333333333333
5.974,2.8666666666666667
5.976,2.933333333333333
5.978,2.8333333333333335
5.98,3.033333333333333
5.982,2.2
5.984,1.7
5.986,2.466666666666667
5.988,2.6666666666666665
5.99,2.8666666666666667
5.992,2.933333333333333
5.994,2.533333333333333
5.996,3.3666666666666667
5.998,3.2333333333333334
6.0,2.966666666666667
6.002,2.8333333333333335
6.0040000000000004,2.4
6.006,2.433333333333333
6.008,2.8
6.01,2.9
6.0120000000000005,2.8
6.014,2.3666666666666667
6.016,2.7
6.018,2.933333333333333
6.0200000000000005,2.7333333333333334
6.022,3.033333333333333
6.024,2.6666666666666665
6.026,3.066666666666667
6.0280000000000005,2.7666666666666666
6.03,2.6666666666666665
6.032,2.7
6.034,2.533333333333333
6.0360000000000005,2.533333333333333
6.038,2.7
6.04,2.7666666666666666
6.042,3.1666666666666665
6.0440000000000005,2.3333333333333335
6.046,2.0
6.048,1.6666666666666667
6.05,2.433333333333333
6.0520000000000005,2.3666666666666667
6.054,2.3
6.056,2.8333333333333335
6.058,2.033333333333333
6.0600000000000005,2.1
6.062,1.9666666666666666
6.064,2.3
6.066,1.8666666666666667
6.0680000000000005,1.8666666666666667
6.07,1.8
6.072,1.5
6.074,1.3
6.0760000000000005,2.0
6.078,2.2
6.08,2.1333333333333333
6.082,1.7333333333333334
6.0840000000000005,1.8
6.086,1.8666666666666667
6.088,2.3
6.09,2.0
6.0920000000000005,2.3333333333333335
6.094,2.7
6.096,2.3
6.098,1.7
6.1000000000000005,1.2
6.102,1.7
6.104,1.5333333333333334
6.106,1.8
6.1080000000000005,1.6666666666666667
6.11,1.5
6.112,1.4666666666666666
6.114,1.9333333333333333
6.1160000000000005,1.8333333333333333
6.118,1.6
6.12,1.7333333333333334
6.122,1.6333333333333333
6.1240000000000006,2.2
6.126,2.4
6.128,3.2
6.13,3.966666666666667
6.132000000000001,4.233333333333333
6.134,5.6
6.136,6.933333333333334
6.138,7.2
6.140000000000001,7.266666666666667
6.142,7.066666666666666
6.144,7.066666666666666
6.146,6.166666666666667
6.148,4.833333333333333
6.15,3.6333333333333333
6.152,2.2
6.154,1.5666666666666667
6.156,0.9333333333333333
6.158,0.6
6.16,-0.13333333333333333
6.162,0.6666666666666666
6.164,0.26666666666666666
6.166,-0.13333333333333333
6.168,0.5
6.17,0.7
6.172,1.7666666666666666
6.174,1.8333333333333333
6.176,1.7
6.178,1.6666666666666667
6.18,1.6666666666666667
6.182,1.7333333333333334
6.184,1.6333333333333333
6.186,1.4666666666666666
6.188,1.5333333333333334
6.19,1.7333333333333334
6.192,1.8666666666666667
6.194,2.066666666666667
6.196,1.6
6.198,1.3666666666666667
6.2,1.4666666666666666
6.202,2.3666666666666667
6.204,2.2666666666666666
6.206,2.1666666666666665
6.208,2.033333333333333
6.21,2.5
6.212,2.0
6.214,2.4
6.216,1.7666666666666666
6.218,1.9333333333333333
6.22,1.8
6.222,1.5666666666666667
6.224,1.6333333333333333
6.226,1.8666666666666667
6.228,1.6666666666666667
6.23,1.5666666666666667
6.232,1.5666666666666667
6.234,2.1666666666666665
6.236,1.8
6.238,1.8333333333333333
6.24,1.9333333333333333
6.242,1.7333333333333334
6.244,1.4333333333333333
6.246,1.3
6.248,1.4666666666666666
6.25,1.5666666666666667
6.252,2.1666666666666665
6.2540000000000004,2.3666666666666667
6.256,2.3
6.258,2.0
6.26,2.066666666666667
6.2620000000000005,1.8666666666666667
6.264,2.3333333333333335
6.266,2.3666666666666667
6.268,2.3
6.2700000000000005,1.6
6.272,1.3666666666666667
6.274,2.0
6.276,1.8666666666666667
6.2780000000000005,1.9333333333333333
6.28,2.033333333333333
6.282,2.466666666666667
6.284,1.9
6.2860000000000005,1.2333333333333334
6.288,1.6333333333333333
6.29,1.8666666666666667
6.292,2.033333333333333
6.2940000000000005,1.8
6.296,1.3333333333333333
6.298,1.7333333333333334
6.3,1.4666666666666666
6.3020000000000005,2.3
6.304,2.1333333333333333
6.306,2.1333333333333333
6.308,1.8333333333333333
6.3100000000000005,1.9
6.312,2.2
6.314,2.4
6.316,2.2
6.3180000000000005,1.8666666666666667
6.32,2.566666666666667
6.322,1.9
6.324,2.066666666666667
6.3260000000000005,2.3333333333333335
6.328,2.3
6.33,1.3
6.332,1.9666666666666666
6.3340000000000005,2.2666666666666666
6.336,1.8333333333333333
6.338,1.7
6.34,1.8333333333333333
6.3420000000000005,2.1
6.344,2.1333333333333333
6.346,2.1
6.348,2.0
6.3500000000000005,2.3333333333333335
6.352,2.3333333333333335
6.354,2.3333333333333335
6.356,2.2666666666666666
6.3580000000000005,1.9333333333333333
6.36,1.3
6.362,1.8333333333333333
6.364,2.4
6.3660000000000005,2.3333333333333335
6.368,2.066666666666667
6.37,1.8666666666666667
6.372,1.9
6.3740000000000006,1.9
6.376,2.033333333333333
6.378,2.533333333333333
6.38,2.2333333333333334
6.382000000000001,2.1666666666666665
6.384,1.8666666666666667
6.386,2.1
6.388,2.7
6.390000000000001,2.1666666666666665
6.392,2.3333333333333335
6.394,2.1
6.396,2.033333333333333
6.398000000000001,2.3666666666666667
6.4,2.533333333333333
6.402,2.1
6.404,2.3
6.406,2.066666666666667
6.408,2.2666666666666666
6.41,2.3666666666666667
6.412,2.2666666666666666
6.414,2.4
6.416,2.033333333333333
6.418,2.3333333333333335
6.42,1.4
6.422,1.6
6.424,1.7
6.426,1.1666666666666667
6.428,0.7333333333333333
6.43,2.5
6.432,2.1666666666666665
6.434,2.566666666666667
6.436,2.1666666666666665
6.438,1.7333333333333334
6.44,1.7666666666666666
6.442,1.6333333333333333
6.444,0.9333333333333333
6.446,0.9666666666666667
6.448,0.9666666666666667
6.45,1.3333333333333333
6.452,1.3666666666666667
6.454,1.9333333333333333
6.456,1.1666666666666667
6.458,1.9333333333333333
6.46,1.9
6.462,1.2
6.464,1.1666666666666667
6.466,0.8333333333333334
6.468,1.3333333333333333
6.47,1.4666666666666666
6.472,1.2666666666666666
6.474,1.1333333333333333
6.476,0.9666666666666667
6.478,0.9333333333333333
6.48,0.8333333333333334
6.482,1.6333333333333333
6.484,1.0
6.486,0.7
6.488,1.2
6.49,1.5333333333333334
6.492,1.2
6.494,1.0
6.496,1.3333333333333333
6.498,0.8666666666666667
6.5,0.5666666666666667
6.502,0.9666666666666667
6.5040000000000004,0.9
6.506,1.3333333333333333
6.508,1.1666666666666667
6.51,1.3666666666666667
6.5120000000000005,1.3333333333333333
6.514,1.6666666666666667
6.516,1.3666666666666667
6.518,0.8333333333333334
6.5200000000000005,1.1
6.522,0.8666666666666667
6.524,0.6
6.526,1.0
6.5280000000000005,0.5
6.53,0.9333333333333333
6.532,1.3
6.534,1.4666666666666666
6.5360000000000005,1.6
6.538,0.7333333333333333
6.54,0.7333333333333333
6.542,1.1333333333333333
6.5440000000000005,1.2333333333333334
6.546,1.3333333333333333
6.548,1.5
6.55,0.5
6.5520000000000005,1.0333333333333334
6.554,0.9666666666666667
6.556,0.5333333333333333
6.558,0.8
6.5600000000000005,1.2333333333333334
6.562,0.9666666666666667
6.564,0.9666666666666667
6.566,1.0666666666666667
6.5680000000000005,0.9
6.57,0.9666666666666667
6.572,1.1
6.574,1.0666666666666667
6.5760000000000005,0.8
6.578,1.0666666666666667
6.58,1.1666666666666667
6.582,1.4
6.5840000000000005,1.3666666666666667
6.586,0.8
6.588,0.8333333333333334
6.59,1.1333333333333333
6.5920000000000005,1.2666666666666666
6.594,1.2666666666666666
6.596,1.5
6.598,0.8666666666666667
6.6000000000000005,0.9333333333333333
6.602,0.9
6.604,0.9
6.606,0.9333333333333333
6.6080000000000005,0.8333333333333334
6.61,1.1666666666666667
6.612,1.3666666666666667
6.614,1.6
6.6160000000000005,0.9
6.618,0.5333333333333333
6.62,0.03333333333333333
6.622,0.3333333333333333
6.6240000000000006,0.6666666666666666
6.626,0.9
6.628,0.7
6.63,0.9
6.632000000000001,0.6
6.634,0.7666666666666667
6.636,0.7
6.638,0.8666666666666667
6.640000000000001,0.7666666666666667
6.642,0.7666666666666667
6.644,0.6333333333333333
6.646,1.0333333333333334
6.648000000000001,0.2
6.65,0.36666666666666664
6.652,0.7333333333333333
6.654,0.7333333333333333
6.656000000000001,0.5333333333333333
6.658,0.36666666666666664
6.66,0.3333333333333333
6.662,0.7666666666666667
6.664,0.2
6.666,-0.06666666666666667
6.668,0.5666666666666667
6.67,0.7666666666666667
6.672,0.8333333333333334
6.674,0.5666666666666667
6.676,0.23333333333333334
6.678,0.8
6.68,0.4666666666666667
6.682,1.0333333333333334
6.684,1.2
6.686,1.0666666666666667
6.688,0.7666666666666667
6.69,1.3666666666666667
6.692,0.8666666666666667
6.694,0.7333333333333333
6.696,0.3
6.698,0.9666666666666667
6.7,1.5333333333333334
6.702,1.0666666666666667
6.704,0.9666666666666667
6.706,0.8333333333333334
6.708,1.1666666666666667
6.71,1.0
6.712,0.5
6.714,1.4333333333333333
6.716,1.3666666666666667
6.718,0.9666666666666667
6.72,0.7666666666666667
6.722,0.9
6.724,0.8666666666666667
6.726,0.16666666666666666
6.728,0.3333333333333333
6.73,0.7666666666666667
6.732,1.0333333333333334
6.734,1.0333333333333334
6.736,0.8
6.738,0.9666666666666667
6.74,0.6666666666666666
6.742,1.1333333333333333
6.744,0.4
6.746,0.8333333333333334
6.748,0.9666666666666667
6.75,1.2333333333333334
6.752,1.1333333333333333
6.7540000000000004,1.8333333333333333
6.756,0.1
6.758,-0.1
6.76,0.36666666666666664
6.7620000000000005,0.16666666666666666
6.764,0.2
6.766,0.7
6.768,0.9
6.7700000000000005,0.16666666666666666
6.772,0.5
6.774,0.5333333333333333
6.776,0.26666666666666666
6.7780000000000005,0.0
6.78,-0.3
6.782,0.5333333333333333
6.784,0.8
6.7860000000000005,0.4666666666666667
6.788,-0.16666666666666666
6.79,0.1
6.792,0.2
6.7940000000000005,0.1
6.796,0.7
6.798,0.5
6.8,-0.1
6.8020000000000005,0.26666666666666666
6.804,0.6666666666666666
6.806,-0.1
6.808,-0.5333333333333333
6.8100000000000005,-0.1
6.812,0.13333333333333333
6.814,0.1
6.816,1.1
6.8180000000000005,0.4
6.82,0.16666666666666666
6.822,0.06666666666666667
6.824,0.5666666666666667
6.8260000000000005,-0.03333333333333333
6.828,-0.1
6.83,0.5
6.832,0.4666666666666667
6.8340000000000005,0.43333333333333335
6.836,0.16666666666666666
6.838,0.9333333333333333
6.84,1.9
6.8420000000000005,2.8666666666666667
6.844,3.1666666666666665
6.846,3.3333333333333335
6.848,3.966666666666667
6.8500000000000005,5.0
6.852,5.0
6.854,5.033333333333333
6.856,4.266666666666667
6.8580000000000005,3.466666666666667
6.86,2.3
6.862,0.5
6.864,-0.8333333333333334
6.8660000000000005,-1.0
6.868,-1.9666666666666666
6.87,-1.1
6.872,-1.5666666666666667
6.8740000000000006,-0.9333333333333333
6.876,-0.6666666666666666
6.878,-0.3333333333333333
6.88,-0.43333333333333335
6.882000000000001,-0.7666666666666667
6.884,-0.7666666666666667
6.886,-0.7333333333333333
6.888,-0.6333333333333333
6.890000000000001,-0.03333333333333333
6.892,-0.43333333333333335
6.894,0.03333333333333333
6.896,-0.23333333333333334
6.898000000000001,-0.13333333333333333
6.9,0.06666666666666667
6.902,-0.43333333333333335
6.904,-0.23333333333333334
6.906000000000001,0.03333333333333333
6.908,0.7
6.91,0.4666666666666667
6.912,0.2
6.914,-0.3
6.916,-0.06666666666666667
6.918,-0.06666666666666667
6.92,0.13333333333333333
6.922,-0.13333333333333333
6.924,0.3
6.926,0.2
6.928,0.16666666666666666
6.93,0.16666666666666666
6.932,0.4
6.934,0.06666666666666667
6.936,0.0
6.938,0.3
6.94,0.4
6.942,0.4
6.944,-0.03333333333333333
6.946,-0.1
6.948,0.6
6.95,0.7666666666666667
6.952,0.1
6.954,-0.5666666666666667
6.956,-0.5333333333333333
6.958,0.2
6.96,0.6333333333333333
6.962,0.4666666666666667
6.964,0.7
6.966,0.03333333333333333
6.968,0.5
6.97,0.2
6.972,0.4666666666666667
6.974,0.4666666666666667
6.976,0.5333333333333333
6.978,0.1
6.98,0.13333333333333333
6.982,-0.26666666666666666
6.984,-0.6333333333333333
6.986,-0.16666666666666666
6.988,0.5666666666666667
6.99,-0.03333333333333333
6.992,0.16666666666666666
6.994,0.06666666666666667
6.996,-0.06666666666666667
6.998,0.1
7.0,0.5
7.002,0.36666666666666664
7.0040000000000004,0.23333333333333334
7.006,0.23333333333333334
7.008,0.16666666666666666
7.01,0.4
7.0120000000000005,0.8
7.014,0.9333333333333333
7.016,0.4666666666666667
7.018,0.4
7.0200000000000005,0.5666666666666667
7.022,0.5666666666666667
7.024,0.6
7.026,0.6666666666666666
7.0280000000000005,0.9333333333333333
7.03,0.9
7.032,1.3333333333333333
7.034,0.9
7.0360000000000005,0.8333333333333334
7.038,0.9
7.04,0.9333333333333333
7.042,1.1333333333333333
7.0440000000000005,1.2
7.046,1.0
7.048,1.7
7.05,0.7
7.0520000000000005,0.8333333333333334
7.054,1.5666666666666667
7.056,0.9
7.058,0.8666666666666667
7.0600000000000005,1.0666666666666667
7.062,0.36666666666666664
7.064,0.5
7.066,0.8333333333333334
7.0680000000000005,1.1
7.07,1.5666666666666667
7.072,1.4
7.074,1.2
7.0760000000000005,0.7666666666666667
7.078,1.0333333333333334
7.08,1.0666666666666667
7.082,1.0666666666666667
7.0840000000000005,1.2666666666666666
7.086,1.4333333333333333
7.088,1.6
7.09,1.1
7.0920000000000005,1.0333333333333334
7.094,1.2666666666666666
7.096,0.9333333333333333
7.098,1.1
7.1000000000000005,1.1666666666666667
7.102,1.5333333333333334
7.104,1.2666666666666666
7.106,1.0666666666666667
7.1080000000000005,1.0666666666666667
7.11,1.7
7.112,1.8
7.114,1.8333333333333333
7.1160000000000005,1.8
7.118,1.4333333333333333
7.12,1.6
7.122,1.4666666666666666
7.1240000000000006,1.6666666666666667
7.126,1.9333333333333333
7.128,2.1
7.13,1.3666666666666667
7.132000000000001,1.0333333333333334
7.134,0.9
7.136,0.9666666666666667
7.138,1.3
7.140000000000001,1.3666666666666667
7.142,1.7666666666666666
7.144,1.2666666666666666
7.146,1.1
7.148000000000001,0.5666666666666667
7.15,0.6333333333333333
7.152,1.1
7.154,0.6666666666666666
7.156000000000001,0.6333333333333333
7.158,0.7666666666666667
7.16,0.5
7.162,0.7
7.164000000000001,0.9
7.166,1.1666666666666667
7.168,1.1666666666666667
7.17,1.1333333333333333
7.172,-0.1
7.174,-0.3
7.176,0.4
7.178,0.5
7.18,0.2
7.182,0.16666666666666666
7.184,0.8666666666666667
7.186,1.0
7.188,0.8333333333333334
7.19,1.0333333333333334
7.192,1.1
7.194,0.7333333333333333
7.196,0.6666666666666666
7.198,0.8333333333333334
7.2,0.6
7.202,0.7666666666666667
7.204,0.8333333333333334
7.206,0.6666666666666666
7.208,1.2333333333333334
7.21,0.7
7.212,0.5
7.214,0.3
7.216,0.6333333333333333
7.218,0.7333333333333333
7.22,0.6
7.222,1.0333333333333334
7.224,1.2
7.226,0.8666666666666667
7.228,0.8333333333333334
7.23,0.7
7.232,1.1666666666666667
7.234,0.5333333333333333
7.236,0.6
7.238,0.8333333333333334
7.24,0.8
7.242,0.03333333333333333
7.244,0.4
7.246,1.0
7.248,1.5
7.25,1.0666666666666667
7.252,1.0333333333333334
7.2540000000000004,0.5666666666666667
7.256,0.23333333333333334
7.258,0.6333333333333333
7.26,0.8
7.2620000000000005,1.0333333333333334
7.264,1.1333333333333333
7.266,1.0666666666666667
7.268,0.7666666666666667
7.2700000000000005,0.5666666666666667
7.272,0.4666666666666667
7.274,0.5666666666666667
7.276,0.9333333333333333
7.2780000000000005,1.0
7.28,1.1333333333333333
7.282,0.6666666666666666
7.284,1.6333333333333333
7.2860000000000005,1.9
7.288,0.9666666666666667
7.29,1.0333333333333334
7.292,0.7
7.2940000000000005,0.8666666666666667
7.296,0.8666666666666667
7.298,0.9333333333333333
7.3,0.3333333333333333
7.3020000000000005,0.2
7.304,0.9333333333333333
7.306,1.1666666666666667
7.308,1.1333333333333333
7.3100000000000005,1.0333333333333334
7.312,1.2333333333333334
7.314,1.2666666666666666
7.316,0.8
7.3180000000000005,0.4
7.32,0.3
7.322,0.8
7.324,1.4
7.3260000000000005,1.4666666666666666
7.328,1.6
7.33,0.6666666666666666
7.332,0.5
7.3340000000000005,0.4666666666666667
7.336,-0.03333333333333333
7.338,0.6666666666666666
7.34,0.7666666666666667
7.3420000000000005,0.9333333333333333
7.344,1.1333333333333333
7.346,1.2333333333333334
7.348,0.13333333333333333
7.3500000000000005,0.6333333333333333
7.352,0.23333333333333334
7.354,0.5333333333333333
7.356,0.9
7.3580000000000005,1.7333333333333334
7.36,1.0333333333333334
7.362,0.23333333333333334
7.364,-0.3
7.3660000000000005,0.06666666666666667
7.368,0.6666666666666666
7.37,0.6666666666666666
7.372,0.4666666666666667
7.3740000000000006,0.4
7.376,0.8
7.378,0.7
7.38,1.0666666666666667
7.382000000000001,1.1
7.384,1.1666666666666667
7.386,1.0333333333333334
7.388,1.0666666666666667
7.390000000000001,0.4666666666666667
7.392,0.8333333333333334
7.394,0.8
7.396,0.5
7.398000000000001,0.4666666666666667
7.4,0.9666666666666667
7.402,1.0
7.404,1.0
7.406000000000001,1.7333333333333334
7.408,1.7666666666666666
7.41,1.2333333333333334
7.412,0.8333333333333334
7.414000000000001,0.3333333333333333
7.416,0.4666666666666667
7.418,0.5
7.42,0.5
7.422000000000001,1.1666666666666667
7.424,2.2
7.426,1.5666666666666667
7.428,0.8333333333333334
7.43,0.7666666666666667
7.432,1.3
7.434,0.9666666666666667
7.436,0.9333333333333333
7.438,0.7
7.44,0.7
7.442,1.0
7.444,0.7666666666666667
7.446,0.9
7.448,0.7666666666666667
7.45,0.7333333333333333
7.452,1.1333333333333333
7.454,1.1
7.456,1.3333333333333333
7.458,1.2333333333333334
7.46,1.5
7.462,1.2666666666666666
7.464,0.4666666666666667
7.466,1.4
7.468,1.3
7.47,1.0
7.472,1.2
7.474,1.1
7.476,1.2333333333333334
7.478,1.0333333333333334
7.48,0.7
7.482,0.4666666666666667
7.484,0.3333333333333333
7.486,0.6333333333333333
7.488,0.5
7.49,0.23333333333333334
7.492,0.5333333333333333
7.494,0.8
7.496,0.8333333333333334
7.498,0.7666666666666667
7.5,1.0
7.502,1.1666666666666667
7.5040000000000004,0.36666666666666664
7.506,0.6
7.508,0.4666666666666667
7.51,0.23333333333333334
7.5120000000000005,0.5
7.514,0.7333333333333333
7.516,0.7
7.518,0.4666666666666667
7.5200000000000005,-0.16666666666666666
7.522,-0.26666666666666666
7.524,-0.06666666666666667
7.526,0.43333333333333335
7.5280000000000005,0.7333333333333333
7.53,0.8333333333333334
7.532,0.13333333333333333
7.534,-0.16666666666666666
7.5360000000000005,0.36666666666666664
7.538,0.5666666666666667
7.54,0.43333333333333335
7.542,1.1333333333333333
7.5440000000000005,1.1
7.546,1.5
7.548,1.6666666666666667
7.55,2.033333333333333
7.5520000000000005,2.433333333333333
7.554,2.8666666666666667
7.556,5.066666666666666
7.558,4.633333333333334
7.5600000000000005,5.433333333333334
7.562,5.3
7.564,5.066666666666666
7.566,5.1
7.5680000000000005,4.466666666666667
7.57,3.2
7.572,1.4
7.574,-0.23333333333333334
7.5760000000000005,-0.13333333333333333
7.578,-0.03333333333333333
7.58,-0.06666666666666667
7.582,0.26666666666666666
7.5840000000000005,0.23333333333333334
7.586,-0.4
7.588,-0.4
7.59,-0.4666666666666667
7.5920000000000005,-0.03333333333333333
7.594,0.5
7.596,0.6
7.598,0.5333333333333333
7.6000000000000005,0.06666666666666667
7.602,0.23333333333333334
7.604,0.4666666666666667
7.606,0.6666666666666666
7.6080000000000005,0.26666666666666666
7.61,0.4
7.612,0.43333333333333335
7.614,0.36666666666666664
7.6160000000000005,0.5333333333333333
7.618,0.36666666666666664
7.62,0.23333333333333334
7.622,0.6666666666666666
7.6240000000000006,0.6333333333333333
7.626,1.2
7.628,1.1666666666666667
7.63,0.6
7.632000000000001,0.7
7.634,0.06666666666666667
7.636,0.06666666666666667
7.638,0.7
7.640000000000001,0.6666666666666666
7.642,0.7
7.644,0.6
7.646,0.5333333333333333
7.648000000000001,0.4
7.65,0.03333333333333333
7.652,-0.1
7.654,0.4666666666666667
7.656000000000001,0.7333333333333333
7.658,0.8333333333333334
7.66,0.7666666666666667
7.662,0.6
7.664000000000001,0.9
7.666,0.8666666666666667
7.668,0.2
7.67,0.1
7.672000000000001,0.2
7.674,0.4
7.676,0.6
7.678,0.8
7.68,0.8
7.682,0.7
7.684,0.5333333333333333
7.686,0.6666666666666666
7.688,0.3
7.69,-0.2
7.692,0.16666666666666666
7.694,1.0666666666666667
7.696,1.4333333333333333
7.698,1.3
7.7,1.1333333333333333
7.702,0.5333333333333333
7.704,0.4666666666666667
7.706,0.8333333333333334
7.708,0.7
7.71,0.4
7.712,-0.06666666666666667
7.714,0.43333333333333335
7.716,0.5
7.718,0.6
7.72,1.0
7.722,1.0666666666666667
7.724,1.4666666666666666
7.726,1.0333333333333334
7.728,1.1333333333333333
7.73,0.8666666666666667
7.732,0.9333333333333333
7.734,0.5666666666666667
7.736,1.7666666666666666
7.738,1.3333333333333333
7.74,1.1666666666666667
7.742,0.8666666666666667
7.744,1.3333333333333333
7.746,1.1333333333333333
7.748,0.9
7.75,0.9333333333333333
7.752,1.4333333333333333
7.7540000000000004,0.8666666666666667
7.756,0.3333333333333333
7.758,0.9333333333333333
7.76,1.3
7.7620000000000005,1.0333333333333334
7.764,0.7333333333333333
7.766,1.5333333333333334
7.768,1.4666666666666666
7.7700000000000005,0.8333333333333334
7.772,0.9333333333333333
7.774,0.3333333333333333
7.776,1.3
7.7780000000000005,1.8
7.78,1.6333333333333333
7.782,1.7333333333333334
7.784,1.7333333333333334
7.7860000000000005,1.6666666666666667
7.788,1.6333333333333333
7.79,1.2666666666666666
7.792,0.8666666666666667
7.7940000000000005,0.8666666666666667
7.796,1.0
7.798,1.8
7.8,2.2666666666666666
7.8020000000000005,1.4333333333333333
7.804,0.7666666666666667
7.806,0.8
7.808,1.0
7.8100000000000005,1.3
7.812,1.2
7.814,1.9
7.816,1.9333333333333333
7.8180000000000005,1.5333333333333334
7.82,1.0333333333333334
7.822,1.6333333333333333
7.824,2.066666666666667
7.8260000000000005,0.1
7.828,1.2333333333333334
7.83,2.1333333333333333
7.832,1.2666666666666666
7.8340000000000005,1.6
7.836,1.3666666666666667
7.838,1.5
7.84,1.4333333333333333
7.8420000000000005,1.3333333333333333
7.844,0.9666666666666667
7.846,1.0666666666666667
7.848,0.7333333333333333
7.8500000000000005,0.8
7.852,1.0333333333333334
7.854,1.0333333333333334
7.856,1.5666666666666667
7.8580000000000005,1.4333333333333333
7.86,0.8
7.862,0.6666666666666666
7.864,0.9333333333333333
7.8660000000000005,0.9333333333333333
7.868,0.7666666666666667
7.87,0.8666666666666667
7.872,0.5
7.8740000000000006,0.23333333333333334
7.876,0.1
7.878,0.23333333333333334
7.88,0.8333333333333334
7.882000000000001,0.4666666666666667
7.884,0.43333333333333335
7.886,0.8
7.888,1.1
7.890000000000001,0.8666666666666667
7.892,0.6333333333333333
7.894,0.6333333333333333
7.896,1.1
7.898000000000001,0.36666666666666664
7.9,0.7333333333333333
7.902,0.5666666666666667
7.904,0.5666666666666667
7.906000000000001,0.43333333333333335
7.908,1.1666666666666667
7.91,0.8
7.912,0.7666666666666667
7.914000000000001,0.5333333333333333
7.916,0.4666666666666667
7.918,0.7666666666666667
7.92,1.0666666666666667
7.922000000000001,0.8
7.924,0.6333333333333333
7.926,0.8333333333333334
7.928,0.7333333333333333
7.930000000000001,1.1
7.932,0.8666666666666667
7.934,0.0
7.936,0.3333333333333333
7.938,0.3
7.94,0.4666666666666667
7.942,0.9666666666666667
7.944,0.9
7.946,1.0333333333333334
7.948,1.3
7.95,0.9333333333333333
7.952,0.6666666666666666
7.954,0.9666666666666667
7.956,0.23333333333333334
7.958,0.3
7.96,0.8666666666666667
7.962,1.2
7.964,0.4666666666666667
7.966,0.03333333333333333
7.968,0.06666666666666667
7.97,0.8
7.972,0.43333333333333335
7.974,0.3333333333333333
7.976,0.6666666666666666
7.978,0.7666666666666667
7.98,1.1
7.982,1.2333333333333334
7.984,0.23333333333333334
7.986,0.2
7.988,0.7
7.99,0.6
7.992,0.5333333333333333
7.994,0.8
7.996,1.1
7.998,1.3
8.0,1.2
8.002,1.1666666666666667
8.004,0.7
8.006,0.7666666666666667
8.008000000000001,0.6
8.01,0.8666666666666667
8.012,0.7333333333333333
8.014,0.6333333333333333
8.016,0.5666666666666667
8.018,0.6333333333333333
8.02,1.0333333333333334
8.022,1.0666666666666667
8.024000000000001,0.3
8.026,0.06666666666666667
8.028,0.0
8.03,0.4
8.032,0.6
8.034,0.8
8.036,0.7333333333333333
8.038,0.7666666666666667
8.040000000000001,0.6666666666666666
8.042,0.6666666666666666
8.044,0.7
8.046,0.8333333333333334
8.048,1.1
8.05,1.0
8.052,0.8666666666666667
8.054,0.0
8.056000000000001,-0.3333333333333333
8.058,0.13333333333333333
8.06,0.5333333333333333
8.062,0.3333333333333333
8.064,0.8
8.066,1.4
8.068,0.4
8.07,0.6666666666666666
8.072000000000001,1.0
8.074,0.7333333333333333
8.076,0.8333333333333334
8.078,0.06666666666666667
8.08,0.3
8.082,0.9
8.084,1.0
8.086,0.3
8.088000000000001,0.4
8.09,0.6333333333333333
8.092,0.4
8.094,0.8
8.096,0.8666666666666667
8.098,0.5666666666666667
8.1,1.1
8.102,0.7
8.104000000000001,-0.06666666666666667
8.106,-0.2
8.108,-0.16666666666666666
8.11,0.0
8.112,0.5333333333333333
8.114,0.8
8.116,0.5333333333333333
8.118,0.8333333333333334
8.120000000000001,0.7333333333333333
8.122,0.8
8.124,0.7
8.126,0.5333333333333333
8.128,0.26666666666666666
8.13,0.6333333333333333
8.132,0.8333333333333334
8.134,1.0666666666666667
8.136000000000001,0.7666666666666667
8.138,0.8333333333333334
8.14,0.6333333333333333
8.142,0.7666666666666667
8.144,0.9
8.146,1.0
8.148,1.1333333333333333
8.15,0.8666666666666667
8.152000000000001,1.3666666666666667
8.154,1.0333333333333334
8.156,1.4
8.158,1.5333333333333334
8.16,1.2333333333333334
8.162,1.3
8.164,0.9333333333333333
8.166,0.5333333333333333
8.168000000000001,0.1
8.17,0.1
8.172,0.7
8.174,0.8
8.176,1.3
8.178,1.6666666666666667
8.18,2.2
8.182,1.4333333333333333
8.184000000000001,0.3333333333333333
8.186,1.0
8.188,0.36666666666666664
8.19,0.16666666666666666
8.192,0.2
8.194,0.6333333333333333
8.196,0.4
8.198,0.43333333333333335
8.2,0.9
8.202,0.8666666666666667
8.204,0.26666666666666666
8.206,0.4666666666666667
8.208,0.3333333333333333
8.21,0.8333333333333334
8.212,0.7
8.214,0.43333333333333335
8.216,0.8666666666666667
8.218,0.6333333333333333
8.22,0.0
8.222,0.2
8.224,0.13333333333333333
8.226,0.2
8.228,0.3
8.23,0.3
8.232,0.13333333333333333
8.234,0.6666666666666666
8.236,0.5333333333333333
8.238,0.6
8.24,0.6333333333333333
8.242,0.36666666666666664
8.244,0.16666666666666666
8.246,0.3333333333333333
8.248,0.7333333333333333
8.25,0.6333333333333333
8.252,0.6333333333333333
8.254,0.7
8.256,0.3
8.258000000000001,0.4666666666666667
8.26,0.3
8.262,0.26666666666666666
8.264,0.5666666666666667
8.266,0.6333333333333333
8.268,0.43333333333333335
8.27,1.0333333333333334
8.272,0.3
8.274000000000001,1.6
8.276,2.5
8.278,3.433333333333333
8.28,4.1
8.282,4.833333333333333
8.284,5.5
8.286,5.166666666666667
8.288,5.433333333333334
8.290000000000001,5.433333333333334
8.292,4.766666666666667
8.294,2.966666666666667
8.296,1.6
8.298,0.0
8.3,0.26666666666666666
8.302,-0.3333333333333333
8.304,-0.8666666666666667
8.306000000000001,-1.3
8.308,-0.7333333333333333
8.31,-0.43333333333333335
8.312,-0.7666666666666667
8.314,-0.16666666666666666
8.316,0.43333333333333335
8.318,0.23333333333333334
8.32,-0.06666666666666667
8.322000000000001,0.2
8.324,0.6666666666666666
8.326,0.26666666666666666
8.328,0.06666666666666667
8.33,-0.3333333333333333
8.332,0.7333333333333333
8.334,0.16666666666666666
8.336,1.0666666666666667
8.338000000000001,0.5666666666666667
8.34,0.3333333333333333
8.342,0.7
8.344,0.8
8.346,0.5
8.348,0.43333333333333335
8.35,0.4666666666666667
8.352,0.6666666666666666
8.354000000000001,0.8333333333333334
8.356,1.0666666666666667
8.358,0.8666666666666667
8.36,1.1333333333333333
8.362,0.8333333333333334
8.364,0.2
8.366,0.5333333333333333
8.368,0.8
8.370000000000001,0.6333333333333333
8.372,0.4
8.374,0.0
8.376,0.8333333333333334
8.378,0.9666666666666667
8.38,1.1666666666666667
8.382,1.0666666666666667
8.384,0.9333333333333333
8.386000000000001,0.6
8.388,-0.06666666666666667
8.39,0.0
8.392,1.1
8.394,1.3333333333333333
8.396,0.8
8.398,0.8
8.4,1.1333333333333333
8.402000000000001,0.8
8.404,1.4666666666666666
8.406,0.9666666666666667
8.408,1.1
8.41,0.8666666666666667
8.412,1.4333333333333333
8.414,1.6
8.416,1.6666666666666667
8.418000000000001,1.7666666666666666
8.42,1.4333333333333333
8.422,1.0
8.424,0.7
8.426,1.0333333333333334
8.428,1.0666666666666667
8.43,1.3333333333333333
8.432,1.1333333333333333
8.434000000000001,1.0
8.436,0.4666666666666667
8.438,0.9
8.44,1.0
8.442,0.7333333333333333
8.444,1.3666666666666667
8.446,0.6666666666666666
8.448,0.36666666666666664
8.45,1.0666666666666667
8.452,1.7
8.454,1.5333333333333334
8.456,1.1666666666666667
8.458,1.3333333333333333
8.46,1.1
8.462,1.4333333333333333
8.464,1.7666666666666666
8.466,1.2333333333333334
8.468,1.2666666666666666
8.47,1.5666666666666667
8.472,1.9333333333333333
8.474,1.6
8.476,1.4333333333333333
8.478,1.7333333333333334
8.48,2.1
8.482,1.8666666666666667
8.484,1.5666666666666667
8.486,1.1666666666666667
8.488,1.7
8.49,1.7666666666666666
8.492,1.7
8.494,1.8333333333333333
8.496,2.0
8.498,2.1666666666666665
8.5,2.3666666666666667
8.502,1.9333333333333333
8.504,1.7666666666666666
8.506,1.0
8.508000000000001,1.3333333333333333
8.51,1.7666666666666666
8.512,2.066666666666667
8.514,2.033333333333333
8.516,2.066666666666667
8.518,2.3666666666666667
8.52,1.5333333333333334
8.522,1.2666666666666666
8.524000000000001,2.1333333333333333
8.526,1.5
8.528,2.3333333333333335
8.53,2.2666666666666666
8.532,2.466666666666667
8.534,1.9
8.536,1.9666666666666666
8.538,1.7
8.540000000000001,1.9
8.542,1.8333333333333333
8.544,2.3666666666666667
8.546,1.2666666666666666
8.548,0.9666666666666667
8.55,1.7333333333333334
8.552,2.3
8.554,1.9666666666666666
8.556000000000001,1.6
8.558,1.8
8.56,1.9333333333333333
8.562,1.7666666666666666
8.564,1.9333333333333333
8.566,2.4
8.568,1.8666666666666667
8.57,1.8
8.572000000000001,1.6666666666666667
8.574,1.8333333333333333
8.576,1.2666666666666666
8.578,1.4666666666666666
8.58,1.2333333333333334
8.582,1.5
8.584,1.9666666666666666
8.586,1.7333333333333334
8.588000000000001,1.6
8.59,1.5333333333333334
8.592,1.6666666666666667
8.594,2.1
8.596,1.6666666666666667
8.598,1.4666666666666666
8.6,1.5
8.602,1.1
8.604000000000001,1.0666666666666667
8.606,1.3333333333333333
8.608,1.6
8.61,1.7666666666666666
8.612,1.3
8.614,1.2333333333333334
8.616,1.0
8.618,-0.2
8.620000000000001,0.8
8.622,1.7666666666666666
8.624,1.6333333333333333
8.626,2.066666666666667
8.628,1.7333333333333334
8.63,1.2333333333333334
8.632,0.9
8.634,1.7
8.636000000000001,1.9
8.638,1.4666666666666666
8.64,1.3
8.642,1.5
8.644,1.5666666666666667
8.646,2.0
8.648,1.6
8.65,1.4
8.652000000000001,1.5666666666666667
8.654,2.1
8.656,2.033333333333333
8.658,1.3
8.66,1.7333333333333334
8.662,1.0333333333333334
8.664,0.5
8.666,0.7333333333333333
8.668000000000001,1.1
8.67,1.5333333333333334
8.672,1.7333333333333334
8.674,1.4333333333333333
8.676,1.5333333333333334
8.678,1.6333333333333333
8.68,1.4
8.682,0.9666666666666667
8.684000000000001,1.1
8.686,1.2333333333333334
8.688,1.9
8.69,1.4333333333333333
8.692,0.9666666666666667
8.694,0.8666666666666667
8.696,1.1
8.698,2.066666666666667
8.700000000000001,2.2666666666666666
8.702,1.6
8.704,1.2
8.706,1.1666666666666667
8.708,0.6666666666666666
8.71,1.5666666666666667
8.712,2.2333333333333334
8.714,1.9666666666666666
8.716,1.9
8.718,1.4
8.72,1.9333333333333333
8.722,1.8
8.724,1.7333333333333334
8.726,1.6666666666666667
8.728,1.4666666666666666
8.73,1.9
8.732,1.3
8.734,1.7666666666666666
8.736,1.7666666666666666
8.738,2.1
8.74,1.4
8.742,1.5666666666666667
8.744,1.7666666666666666
8.746,1.7
8.748,1.7333333333333334
8.75,1.6
8.752,1.3666666666666667
8.754,1.4333333333333333
8.756,1.8
8.758000000000001,1.7666666666666666
8.76,2.066666666666667
8.762,0.8
8.764,0.8666666666666667
8.766,1.3666666666666667
8.768,1.2666666666666666
8.77,1.6333333333333333
8.772,1.8666666666666667
8.774000000000001,1.7
8.776,1.7666666666666666
8.778,1.7333333333333334
8.78,1.8
8.782,1.9
8.784,1.0333333333333334
8.786,1.3
8.788,1.5666666666666667
8.790000000000001,1.5
8.792,1.8666666666666667
8.794,1.6
8.796,1.3
8.798,1.7333333333333334
8.8,1.4333333333333333
8.802,1.9333333333333333
8.804,1.9
8.806000000000001,1.1666666666666667
8.808,1.0
8.81,1.0333333333333334
8.812,1.6
8.814,2.0
8.816,2.4
8.818,1.8666666666666667
8.82,1.5333333333333334
8.822000000000001,1.0666666666666667
8.824,1.0333333333333334
8.826,1.1
8.828,1.1666666666666667
8.83,1.0333333333333334
8.832,1.1333333333333333
8.834,1.6666666666666667
8.836,2.7
8.838000000000001,2.7333333333333334
8.84,2.4
8.842,1.0666666666666667
8.844,0.03333333333333333
8.846,0.7666666666666667
8.848,1.8
8.85,1.8
8.852,1.7333333333333334
8.854000000000001,1.8333333333333333
8.856,1.9
8.858,1.5333333333333334
8.86,1.1333333333333333
8.862,1.4333333333333333
8.864,1.6333333333333333
8.866,1.1333333333333333
8.868,1.1333333333333333
8.870000000000001,1.4666666666666666
8.872,2.433333333333333
8.874,2.466666666666667
8.876,2.4
8.878,2.1666666666666665
8.88,1.6
8.882,1.6333333333333333
8.884,2.1333333333333333
8.886000000000001,1.9666666666666666
8.888,1.6333333333333333
8.89,1.8
8.892,1.9333333333333333
8.894,1.8
8.896,1.8666666666666667
8.898,2.1666666666666665
8.9,2.6666666666666665
8.902000000000001,2.1
8.904,1.8
8.906,2.0
8.908,2.0
8.91,1.8333333333333333
8.912,1.5666666666666667
8.914,1.9
8.916,2.066666666666667
8.918000000000001,1.7
8.92,0.6333333333333333
8.922,1.3666666666666667
8.924,1.9
8.926,1.8
8.928,1.4666666666666666
8.93,1.2333333333333334
8.932,1.9
8.934000000000001,1.5
8.936,1.0666666666666667
8.938,1.1333333333333333
8.94,0.6666666666666666
8.942,0.6333333333333333
8.944,1.1333333333333333
8.946,0.8666666666666667
8.948,0.7
8.950000000000001,0.8
8.952,1.3333333333333333
8.954,1.5
8.956,1.6666666666666667
8.958,1.0333333333333334
8.96,1.3666666666666667
8.962,1.0666666666666667
8.964,1.2
8.966,1.0
8.968,1.1
8.97,1.2333333333333334
8.972,1.5
8.974,0.9666666666666667
8.976,1.8333333333333333
8.978,1.0333333333333334
8.98,0.9
8.982,0.6666666666666666
8.984,0.9666666666666667
8.986,1.3666666666666667
8.988,1.6333333333333333
8.99,1.6333333333333333
8.992,1.4
8.994,1.3
8.996,1.3333333333333333
8.998,1.9
9.0,3.5
9.002,4.166666666666667
9.004,4.733333333333333
9.006,5.366666666666666
9.008000000000001,5.766666666666667
9.01,6.433333333333334
9.012,6.133333333333334
9.014,5.9
9.016,5.2
9.018,3.8666666666666667
9.02,2.466666666666667
9.022,1.5666666666666667
9.024000000000001,0.9
9.026,0.9333333333333333
9.028,0.26666666666666666
9.03,0.26666666666666666
9.032,0.6666666666666666
9.034,0.6666666666666666
9.036,-0.16666666666666666
9.038,0.23333333333333334
9.040000000000001,0.23333333333333334
9.042,0.36666666666666664
9.044,0.6333333333333333
9.046,0.5333333333333333
9.048,0.8666666666666667
9.05,0.6333333333333333
9.052,0.6666666666666666
9.054,1.3
9.056000000000001,1.1666666666666667
9.058,1.1
9.06,0.9333333333333333
9.062,1.3
9.064,1.0666666666666667
9.066,0.6666666666666666
9.068,0.7666666666666667
9.07,1.2
9.072000000000001,1.8666666666666667
9.074,1.8
9.076,2.3333333333333335
9.078,1.2
9.08,0.5666666666666667
9.082,0.8
9.084,0.8666666666666667
9.086,1.6
9.088000000000001,1.7333333333333334
9.09,1.3333333333333333
9.092,1.1
9.094,1.3333333333333333
9.096,1.2666666666666666
9.098,0.9
9.1,1.6666666666666667
9.102,1.1
9.104000000000001,1.1
9.106,1.2666666666666666
9.108,1.5
9.11,2.1
9.112,2.066666666666667
9.114,1.7666666666666666
9.116,1.5666666666666667
9.118,1.4666666666666666
9.120000000000001,1.5
9.122,1.5666666666666667
9.124,1.7
9.126,1.5666666666666667
9.128,1.7666666666666666
9.13,1.8333333333333333
9.132,1.3666666666666667
9.134,1.3333333333333333
9.136000000000001,1.7
9.138,1.2666666666666666
9.14,1.2666666666666666
9.142,1.9
9.144,1.7333333333333334
9.146,1.8333333333333333
9.148,2.066666666666667
9.15,1.4333333333333333
9.152000000000001,1.6666666666666667
9.154,1.8666666666666667
9.156,1.6333333333333333
9.158,1.7
9.16,1.3333333333333333
9.162,1.3666666666666667
9.164,1.8
9.166,2.2333333333333334
9.168000000000001,1.5666666666666667
9.17,1.9666666666666666
9.172,1.6333333333333333
9.174,1.8666666666666667
9.176,2.066666666666667
9.178,1.9666666666666666
9.18,1.7
9.182,1.9666666666666666
9.184000000000001,2.2
9.186,1.7666666666666666
9.188,1.8333333333333333
9.19,1.7
9.192,2.066666666666667
9.194,2.2333333333333334
9.196,2.533333333333333
9.198,2.2
9.200000000000001,1.4333333333333333
9.202,1.7
9.204,2.3
9.206,2.2
9.208,2.8
9.21,2.566666666666667
9.212,1.7666666666666666
9.214,1.5333333333333334
9.216000000000001,2.0
9.218,1.6333333333333333
9.22,2.1
9.222,2.4
9.224,3.2666666666666666
9.226,2.933333333333333
9.228,2.6
9.23,2.5
9.232,2.433333333333333
9.234,2.433333333333333
9.236,2.466666666666667
9.238,2.8666666666666667
9.24,2.4
9.242,3.0
9.244,2.7
9.246,1.9333333333333333
9.248,2.4
9.25,2.1333333333333333
9.252,2.566666666666667
9.254,3.0
9.256,3.1666666666666665
9.258000000000001,2.2666666666666666
9.26,1.9666666666666666
9.262,2.2666666666666666
9.264,1.7
9.266,1.6
9.268,2.033333333333333
9.27,2.2666666666666666
9.272,2.3
9.274000000000001,2.466666666666667
9.276,2.5
9.278,2.466666666666667
9.28,1.8666666666666667
9.282,1.9666666666666666
9.284,2.2333333333333334
9.286,2.3
9.288,2.066666666666667
9.290000000000001,2.3
9.292,2.8
9.294,2.4
9.296,2.6666666666666665
9.298,2.066666666666667
9.3,1.4666666666666666
9.302,1.9
9.304,1.4666666666666666
9.306000000000001,1.8
9.308,1.5333333333333334
9.31,0.9
9.312,2.2666666666666666
9.314,2.3
9.316,2.466666666666667
9.318,1.8666666666666667
9.32,2.1333333333333333
9.322000000000001,1.7
9.324,1.9
9.326,2.033333333333333
9.328,2.1
9.33,2.3
9.332,2.433333333333333
9.334,2.2333333333333334
9.336,1.5333333333333334
9.338000000000001,1.3666666666666667
9.34,0.6
9.342,1.0333333333333334
9.344,1.9
9.346,2.2333333333333334
9.348,1.8666666666666667
9.35,1.3
9.352,1.5666666666666667
9.354000000000001,1.5666666666666667
9.356,1.5
9.358,1.6666666666666667
9.36,1.3666666666666667
9.362,1.3666666666666667
9.364,1.5333333333333334
9.366,1.3
9.368,1.9
9.370000000000001,1.7333333333333334
9.372,1.8333333333333333
9.374,1.4
9.376,1.1666666666666667
9.378,1.2666666666666666
9.38,1.8333333333333333
9.382,2.566666666666667
9.384,1.6
9.386000000000001,1.0666666666666667
9.388,1.8666666666666667
9.39,0.5666666666666667
9.392,0.8333333333333334
9.394,1.5666666666666667
9.396,2.0
9.398,1.2333333333333334
9.4,1.3333333333333333
9.402000000000001,1.5
9.404,1.5333333333333334
9.406,1.5666666666666667
9.408,1.9333333333333333
9.41,1.6333333333333333
9.412,2.0
9.414,2.4
9.416,2.3333333333333335
9.418000000000001,2.1
9.42,1.5
9.422,1.9333333333333333
9.424,2.1
9.426,1.2333333333333334
9.428,2.1666666666666665
9.43,2.1333333333333333
9.432,1.8333333333333333
9.434000000000001,1.5333333333333334
9.436,2.433333333333333
9.438,1.5333333333333334
9.44,1.6333333333333333
9.442,1.1
9.444,1.2333333333333334
9.446,2.0
9.448,2.6
9.450000000000001,2.1
9.452,1.5333333333333334
9.454,1.7333333333333334
9.456,2.2333333333333334
9.458,1.9666666666666666
9.46,1.5666666666666667
9.462,1.4333333333333333
9.464,1.5666666666666667
9.466000000000001,2.1
9.468,1.6333333333333333
9.47,1.9666666666666666
9.472,1.9333333333333333
9.474,1.9333333333333333
9.476,2.033333333333333
9.478,1.9666666666666666
9.48,0.8666666666666667
9.482,1.0
9.484,1.1666666666666667
9.486,0.8333333333333334
9.488,1.2666666666666666
9.49,1.8
9.492,1.1333333333333333
9.494,1.5666666666666667
9.496,2.466666666666667
9.498,2.4
9.5,2.0
9.502,2.6
9.504,2.2333333333333334
9.506,2.0
9.508000000000001,1.9666666666666666
9.51,2.1666666666666665
9.512,2.3666666666666667
9.514,1.9666666666666666
9.516,1.4333333333333333
9.518,1.2666666666666666
9.52,0.4666666666666667
9.522,0.7333333333333333
9.524000000000001,1.7666666666666666
9.526,1.9333333333333333
9.528,1.9333333333333333
9.53,2.7333333333333334
9.532,1.4333333333333333
9.534,1.5333333333333334
9.536,1.7333333333333334
9.538,1.2666666666666666
9.540000000000001,1.1333333333333333
9.542,2.033333333333333
9.544,1.8333333333333333
9.546,1.4
9.548,1.7
9.55,1.9666666666666666
9.552,1.7333333333333334
9.554,1.4
9.556000000000001,1.3
9.558,1.4333333333333333
9.56,1.6333333333333333
9.562,2.2333333333333334
9.564,2.3333333333333335
9.566,2.466666666666667
9.568,2.3333333333333335
9.57,2.2333333333333334
9.572000000000001,2.2666666666666666
9.574,2.3333333333333335
9.576,2.2
9.578,2.3333333333333335
9.58,2.2666666666666666
9.582,2.2
9.584,1.9333333333333333
9.586,2.1666666666666665
9.588000000000001,2.433333333333333
9.59,2.466666666666667
9.592,1.8666666666666667
9.594,1.4666666666666666
9.596,1.9666666666666666
9.598,2.2
9.6,2.3
9.602,2.1333333333333333
9.604000000000001,2.2333333333333334
9.606,2.3
9.608,2.066666666666667
9.61,2.2333333333333334
9.612,1.4333333333333333
9.614,1.9333333333333333
9.616,1.9
9.618,1.9
9.620000000000001,2.3
9.622,2.1
9.624,1.5666666666666667
9.626,1.7666666666666666
9.628,1.7333333333333334
9.63,2.1666666666666665
9.632,1.9
9.634,1.6666666666666667
9.636000000000001,1.4
9.638,1.0666666666666667
9.64,1.5666666666666667
9.642,1.0666666666666667
9.644,2.2666666666666666
9.646,2.066666666666667
9.648,1.8333333333333333
9.65,1.7333333333333334
9.652000000000001,0.9
9.654,0.9666666666666667
9.656,1.2666666666666666
9.658,1.8
9.66,0.7666666666666667
9.662,0.5
9.664,1.1
9.666,1.2666666666666666
9.668000000000001,1.2
9.67,1.4333333333333333
9.672,1.0666666666666667
9.674,0.4666666666666667
9.676,0.9333333333333333
9.678,1.3666666666666667
9.68,0.9333333333333333
9.682,1.2333333333333334
9.684000000000001,1.2
9.686,1.2
9.688,1.7333333333333334
9.69,1.6333333333333333
9.692,1.6333333333333333
9.694,1.1666666666666667
9.696,0.9
9.698,0.6
9.700000000000001,1.8
9.702,1.6
9.704,1.7666666666666666
9.706,1.2333333333333334
9.708,1.5
9.71,1.6333333333333333
9.712,1.2666666666666666
9.714,1.0
9.716000000000001,1.3333333333333333
9.718,1.8
9.72,3.033333333333333
9.722,4.066666666666666
9.724,5.466666666666667
9.726,6.133333333333334
9.728,6.8
9.73,6.866666666666666
9.732,6.166666666666667
9.734,5.333333333333333
9.736,3.933333333333333
9.738,2.8666666666666667
9.74,1.4
9.742,0.6333333333333333
9.744,0.3333333333333333
9.746,0.3
9.748,0.06666666666666667
9.75,0.2
9.752,0.4666666666666667
9.754,0.6
9.756,0.23333333333333334
9.758000000000001,0.5666666666666667
9.76,0.26666666666666666
9.762,0.43333333333333335
9.764,0.3333333333333333
9.766,-0.1
9.768,1.0
9.77,1.4666666666666666
9.772,1.4666666666666666
9.774000000000001,1.6333333333333333
9.776,1.2
9.778,0.5666666666666667
9.78,0.8333333333333334
9.782,0.9333333333333333
9.784,1.4333333333333333
9.786,1.2666666666666666
9.788,1.2666666666666666
9.790000000000001,0.8
9.792,0.5666666666666667
9.794,0.9333333333333333
9.796,0.8666666666666667
9.798,1.2
9.8,0.26666666666666666
9.802,0.9666666666666667
9.804,1.0666666666666667
9.806000000000001,1.0666666666666667
9.808,0.6333333333333333
9.81,0.4666666666666667
9.812,0.8666666666666667
9.814,1.0666666666666667
9.816,0.5333333333333333
9.818,0.3
9.82,0.8
9.822000000000001,1.3333333333333333
9.824,1.2333333333333334
9.826,1.6333333333333333
9.828,1.2333333333333334
9.83,0.6333333333333333
9.832,0.7
9.834,1.0
9.836,0.5
9.838000000000001,1.0
9.84,1.6
9.842,1.2333333333333334
9.844,1.4
9.846,1.4666666666666666
9.848,1.4
9.85,1.2666666666666666
9.852,0.43333333333333335
9.854000000000001,0.9333333333333333
9.856,1.5333333333333334
9.858,1.1333333333333333
9.86,0.9
9.862,1.3666666666666667
9.864,1.1666666666666667
9.866,1.8
9.868,1.5666666666666667
9.870000000000001,1.6333333333333333
9.872,1.2666666666666666
9.874,1.4
9.876,1.0
9.878,1.5333333333333334
9.88,1.2
9.882,1.2666666666666666
9.884,1.5666666666666667
9.886000000000001,1.4
9.888,1.1
9.89,1.1333333333333333
9.892,1.3666666666666667
9.894,1.3666666666666667
9.896,0.9
9.898,1.2
9.9,1.6333333333333333
9.902000000000001,0.8666666666666667
9.904,1.2666666666666666
9.906,1.5333333333333334
9.908,1.7666666666666666
9.91,1.9666666666666666
9.912,1.7333333333333334
9.914,1.1
9.916,1.5333333333333334
9.918000000000001,1.4
9.92,1.4333333333333333
9.922,1.8666666666666667
9.924,1.6666666666666667
9.926,1.8666666666666667
9.928,1.8
9.93,1.4666666666666666
9.932,2.0
9.934000000000001,1.6666666666666667
9.936,1.8
9.938,2.3666666666666667
9.94,2.1
9.942,2.1
9.944,2.033333333333333
9.946,1.7666666666666666
9.948,2.033333333333333
9.950000000000001,1.6
9.952,1.6666666666666667
9.954,1.5666666666666667
9.956,2.3333333333333335
9.958,2.433333333333333
9.96,2.2333333333333334
9.962,1.9666666666666666
9.964,2.0
9.966000000000001,2.033333333333333
9.968,2.3333333333333335
9.97,2.066666666666667
9.972,1.9333333333333333
9.974,2.1666666666666665
9.976,1.9
9.978,2.566666666666667
9.98,2.533333333333333
9.982000000000001,2.466666666666667
9.984,1.9333333333333333
9.986,1.9
9.988,1.6
9.99,1.9
9.992,2.3333333333333335
9.994,2.3333333333333335
9.996,2.6
9.998,1.9333333333333333
10.0,2.1
10.002,1.9666666666666666
10.004,1.9333333333333333
10.006,1.8333333333333333
10.008000000000001,2.066666666666667
10.01,2.433333333333333
10.012,2.1
10.014,1.9333333333333333
10.016,2.1666666666666665
10.018,2.2666666666666666
10.02,2.466666666666667
10.022,2.2333333333333334
10.024000000000001,1.3333333333333333
10.026,1.0666666666666667
10.028,1.4333333333333333
10.03,1.7333333333333334
10.032,1.5666666666666667
10.034,1.6
10.036,1.9
10.038,1.8666666666666667
10.040000000000001,2.1333333333333333
10.042,1.9
10.044,1.7666666666666666
10.046,1.6333333333333333
10.048,1.0333333333333334
10.05,1.3666666666666667
10.052,1.6
10.054,1.3333333333333333
10.056000000000001,1.0333333333333334
10.058,1.7333333333333334
10.06,1.3666666666666667
10.062,1.3
10.064,1.8666666666666667
10.066,2.0
10.068,1.0333333333333334
10.07,0.6333333333333333
10.072000000000001,1.7333333333333334
10.074,1.5333333333333334
10.076,1.2333333333333334
10.078,1.9666666666666666
10.08,0.8
10.082,1.0333333333333334
10.084,1.2
10.086,1.6333333333333333
10.088000000000001,1.4
10.09,1.3
10.092,0.9
10.094,1.5666666666666667
10.096,1.3666666666666667
10.098,1.2666666666666666
10.1,1.2333333333333334
10.102,1.3
10.104000000000001,1.5
10.106,1.6
10.108,1.6666666666666667
10.11,1.9666666666666666
10.112,1.6333333333333333
10.114,1.3
10.116,1.5666666666666667
10.118,1.0333333333333334
10.120000000000001,0.6333333333333333
10.122,0.9666666666666667
10.124,1.6
10.126,1.4666666666666666
10.128,1.5666666666666667
10.13,1.5
10.132,1.9333333333333333
10.134,2.2666666666666666
10.136000000000001,1.5333333333333334
10.138,1.1666666666666667
10.14,1.6333333333333333
10.142,1.8
10.144,1.6333333333333333
10.146,1.3666666666666667
10.148,1.1
10.15,2.1666666666666665
10.152000000000001,1.6
10.154,1.5
10.156,1.0
10.158,1.6666666666666667
10.16,1.8
10.162,1.7666666666666666
10.164,1.8666666666666667
10.166,1.8333333333333333
10.168000000000001,2.1
10.17,1.7333333333333334
10.172,1.6
10.174,2.1333333333333333
10.176,2.1333333333333333
10.178,1.8666666666666667
10.18,2.2666666666666666
10.182,2.433333333333333
10.184000000000001,1.9666666666666666
10.186,1.7666666666666666
10.188,1.1333333333333333
10.19,1.2333333333333334
10.192,1.8
10.194,1.6
10.196,2.0
10.198,2.5
10.200000000000001,1.9666666666666666
10.202,1.7333333333333334
10.204,1.9333333333333333
10.206,2.0
10.208,2.033333333333333
10.21,1.8
10.212,1.7
10.214,1.4333333333333333
10.216000000000001,1.8
10.218,1.8
10.22,2.2333333333333334
10.222,1.5333333333333334
10.224,2.533333333333333
10.226,2.6
10.228,2.0
10.23,1.6666666666666667
10.232000000000001,1.6333333333333333
10.234,1.0666666666666667
10.236,1.6333333333333333
10.238,2.2666666666666666
10.24,1.9666666666666666
10.242,1.8
10.244,2.033333333333333
10.246,1.7333333333333334
10.248,2.0
10.25,2.2666666666666666
10.252,1.9
10.254,1.6333333333333333
10.256,1.1666666666666667
10.258000000000001,1.7333333333333334
10.26,1.7333333333333334
10.262,1.2666666666666666
10.264,0.9666666666666667
10.266,1.2
10.268,1.6666666666666667
10.27,2.0
10.272,1.8
10.274000000000001,1.9
10.276,2.3333333333333335
10.278,2.3
10.28,1.2
10.282,2.2333333333333334
10.284,2.2666666666666666
10.286,3.0
10.288,2.466666666666667
10.290000000000001,2.433333333333333
10.292,2.4
10.294,2.1333333333333333
10.296,2.3
10.298,1.9666666666666666
10.3,2.7666666666666666
10.302,3.1
10.304,2.9
10.306000000000001,3.1333333333333333
10.308,2.7
10.31,2.066666666666667
10.312,1.9
10.314,2.0
10.316,1.9666666666666666
10.318,2.3333333333333335
10.32,2.7
10.322000000000001,2.7
10.324,2.9
10.326,2.566666666666667
10.328,1.9666666666666666
10.33,2.066666666666667
10.332,2.066666666666667
10.334,2.433333333333333
10.336,2.6
10.338000000000001,2.7333333333333334
10.34,2.8
10.342,2.2333333333333334
10.344,2.033333333333333
10.346,2.6333333333333333
10.348,2.2666666666666666
10.35,2.3333333333333335
10.352,2.2333333333333334
10.354000000000001,2.466666666666667
10.356,1.9
10.358,2.2333333333333334
10.36,2.2333333333333334
10.362,2.033333333333333
10.364,2.1666666666666665
10.366,2.466666666666667
10.368,1.3333333333333333
10.370000000000001,0.9333333333333333
10.372,1.2333333333333334
10.374,1.5666666666666667
10.376,2.3333333333333335
10.378,1.6666666666666667
10.38,1.6666666666666667
10.382,2.1
10.384,2.1666666666666665
10.386000000000001,1.8
10.388,2.033333333333333
10.39,1.2333333333333334
10.392,1.8333333333333333
10.394,2.2666666666666666
10.396,2.0
10.398,1.7666666666666666
10.4,1.8333333333333333
10.402000000000001,1.8
10.404,1.3666666666666667
10.406,2.3666666666666667
10.408,2.5
10.41,2.1
10.412,1.2666666666666666
10.414,0.8666666666666667
10.416,1.4666666666666666
10.418000000000001,1.5666666666666667
10.42,1.9
10.422,1.4
10.424,1.7
10.426,1.8666666666666667
10.428,2.1
10.43,1.7666666666666666
10.432,1.7
10.434000000000001,2.033333333333333
10.436,3.2
10.438,3.6666666666666665
10.44,3.9
10.442,4.9
10.444,5.633333333333334
10.446,6.633333333333334
10.448,7.333333333333333
10.450000000000001,7.4
10.452,7.7
10.454,6.833333333333333
10.456,5.8
10.458,4.333333333333333
10.46,2.7333333333333334
10.462,2.033333333333333
10.464,1.4
10.466000000000001,0.6666666666666666
10.468,0.6
10.47,0.6666666666666666
10.472,0.8666666666666667
10.474,0.8
10.476,0.9
10.478,0.9333333333333333
10.48,1.1333333333333333
10.482000000000001,1.9
10.484,2.1333333333333333
10.486,1.4666666666666666
10.488,1.5666666666666667
10.49,1.0333333333333334
10.492,1.3
10.494,2.066666666666667
10.496,2.3666666666666667
10.498,1.6333333333333333
10.5,1.9666666666666666
10.502,2.1
10.504,2.1333333333333333
10.506,1.6
10.508000000000001,1.4
10.51,1.7666666666666666
10.512,2.7333333333333334
10.514,2.6
10.516,1.7
10.518,1.9333333333333333
10.52,2.0
10.522,2.5
10.524000000000001,1.9666666666666666
10.526,1.9333333333333333
10.528,1.7
10.53,1.4
10.532,1.9666666666666666
10.534,2.2
10.536,1.7666666666666666
10.538,1.5666666666666667
10.540000000000001,1.7
10.542,1.5333333333333334
10.544,1.7333333333333334
10.546,2.3666666666666667
10.548,2.7
10.55,2.066666666666667
10.552,2.1666666666666665
10.554,1.9333333333333333
10.556000000000001,1.8666666666666667
10.558,1.9333333333333333
10.56,2.533333333333333
10.562,2.8
10.564,2.5
10.566,2.6
10.568,2.2333333333333334
10.57,2.0
10.572000000000001,2.2666666666666666
10.574,1.9333333333333333
10.576,1.3
10.578,2.2
10.58,2.7333333333333334
10.582,2.0
10.584,2.9
10.586,2.5
10.588000000000001,3.3333333333333335
10.59,2.8666666666666667
10.592,2.466666666666667
10.594,2.466666666666667
10.596,2.566666666666667
10.598,2.566666666666667
10.6,2.466666666666667
10.602,2.4
10.604000000000001,3.533333333333333
10.606,2.7666666666666666
10.608,2.7333333333333334
10.61,2.466666666666667
10.612,1.9333333333333333
10.614,2.8666666666666667
10.616,2.8666666666666667
10.618,2.7
10.620000000000001,2.933333333333333
10.622,2.8
10.624,2.7666666666666666
10.626,3.0
10.628,3.1
10.63,2.9
10.632,3.3666666666666667
10.634,1.9666666666666666
10.636000000000001,1.6666666666666667
10.638,2.066666666666667
10.64,3.433333333333333
10.642,3.7666666666666666
10.644,3.1666666666666665
10.646,3.1333333333333333
10.648,3.533333333333333
10.65,3.966666666666667
10.652000000000001,3.2333333333333334
10.654,2.7666666666666666
10.656,2.966666666666667
10.658,3.1
10.66,3.6
10.662,3.8
10.664,3.4
10.666,3.8666666666666667
10.668000000000001,3.8333333333333335
10.67,3.433333333333333
10.672,3.1
10.674,3.2666666666666666
10.676,3.2666666666666666
10.678,2.6666666666666665
10.68,2.8666666666666667
10.682,3.1333333333333333
10.684000000000001,3.0
10.686,3.433333333333333
10.688,3.2
10.69,3.966666666666667
10.692,2.966666666666667
10.694,3.1
10.696,3.433333333333333
10.698,3.2666666666666666
10.700000000000001,3.3333333333333335
10.702,3.2333333333333334
10.704,3.6666666666666665
10.706,3.933333333333333
10.708,3.7333333333333334
10.71,3.3333333333333335
10.712,3.0
10.714,2.7
10.716000000000001,3.6
10.718,3.3333333333333335
10.72,3.533333333333333
10.722,3.8
10.724,3.2
10.726,3.8666666666666667
10.728,3.3
10.73,3.3333333333333335
10.732000000000001,3.6
10.734,3.4
10.736,3.3
10.738,3.8333333333333335
10.74,3.433333333333333
10.742,3.3666666666666667
10.744,3.3
10.746,3.6
10.748000000000001,3.3666666666666667
10.75,3.2333333333333334
10.752,3.2
10.754,3.1333333333333333
10.756,3.1
10.758000000000001,2.7333333333333334
10.76,2.4
10.762,3.3666666666666667
10.764,2.966666666666667
10.766,2.933333333333333
10.768,3.4
10.77,3.2666666666666666
10.772,2.3666666666666667
10.774000000000001,1.8666666666666667
10.776,2.6333333333333333
10.778,2.8666666666666667
10.78,3.0
10.782,2.533333333333333
10.784,3.066666666666667
10.786,2.466666666666667
10.788,2.4
10.790000000000001,2.8333333333333335
10.792,3.066666666666667
10.794,2.966666666666667
10.796,2.9
10.798,2.533333333333333
10.8,2.2666666666666666
10.802,2.7
10.804,2.8666666666666667
10.806000000000001,1.8
10.808,1.7
10.81,2.8333333333333335
10.812,2.9
10.814,2.6
10.816,2.566666666666667
10.818,2.4
10.82,2.033333333333333
10.822000000000001,2.2333333333333334
10.824,3.1333333333333333
10.826,3.0
10.828,3.033333333333333
10.83,2.8333333333333335
10.832,2.9
10.834,2.7
10.836,2.8666666666666667
10.838000000000001,2.8666666666666667
10.84,3.3333333333333335
10.842,2.7666666666666666
10.844,2.1
10.846,2.7333333333333334
10.848,2.433333333333333
10.85,2.2666666666666666
10.852,2.1
10.854000000000001,2.7333333333333334
10.856,2.8333333333333335
10.858,2.7
10.86,2.7666666666666666
10.862,2.7666666666666666
10.864,3.0
10.866,2.933333333333333
10.868,2.3666666666666667
10.870000000000001,2.1333333333333333
10.872,2.3333333333333335
10.874,2.3333333333333335
10.876,2.7
10.878,2.7
10.88,3.3
10.882,2.533333333333333
10.884,2.3666666666666667
10.886000000000001,2.2
10.888,2.933333333333333
10.89,3.2333333333333334
10.892,2.966666666666667
10.894,2.3333333333333335
10.896,2.6666666666666665
10.898,3.066666666666667
10.9,3.4
10.902000000000001,2.8333333333333335
10.904,1.6333333333333333
10.906,2.8
10.908,2.433333333333333
10.91,1.9
10.912,2.4
10.914,2.6
10.916,2.7666666666666666
10.918000000000001,2.7333333333333334
10.92,3.066666666666667
10.922,2.8333333333333335
10.924,1.8
10.926,2.3
10.928,1.7666666666666666
10.93,1.8
10.932,2.533333333333333
10.934000000000001,3.2333333333333334
10.936,2.466666666666667
10.938,1.8
10.94,2.2
10.942,2.566666666666667
10.944,2.566666666666667
10.946,1.8666666666666667
10.948,2.066666666666667
10.950000000000001,2.0
10.952,2.066666666666667
10.954,1.9333333333333333
10.956,1.9333333333333333
10.958,1.8
10.96,2.533333333333333
10.962,1.9
10.964,2.8333333333333335
10.966000000000001,2.8666666666666667
10.968,2.966666666666667
10.97,2.7666666666666666
10.972,2.9
10.974,2.8
10.976,2.5
10.978,2.2666666666666666
10.98,2.2333333333333334
10.982000000000001,2.2333333333333334
10.984,2.8
10.986,2.6
10.988,1.9
10.99,2.5
10.992,2.8333333333333335
10.994,2.966666666666667
10.996,2.933333333333333
10.998000000000001,3.0
11.0,3.066666666666667
11.002,3.4
11.004,2.9
11.006,2.6666666666666665
11.008000000000001,2.7333333333333334
11.01,2.7666666666666666
11.012,2.6666666666666665
11.014,2.6666666666666665
11.016,2.8333333333333335
11.018,2.7
11.02,2.8333333333333335
11.022,3.1333333333333333
11.024000000000001,3.2
11.026,3.2666666666666666
11.028,2.9
11.03,3.066666666666667
11.032,3.2
11.034,3.2333333333333334
11.036,3.066666666666667
11.038,3.1333333333333333
11.040000000000001,2.966666666666667
11.042,3.2
11.044,3.1333333333333333
11.046,3.3333333333333335
11.048,2.933333333333333
11.05,2.6
11.052,2.5
11.054,2.9
11.056000000000001,2.7666666666666666
11.058,3.2
11.06,3.566666666666667
11.062,2.966666666666667
11.064,1.6333333333333333
11.066,2.7
11.068,2.5
11.07,2.966666666666667
11.072000000000001,2.6333333333333333
11.074,2.7
11.076,2.8
11.078,2.2666666666666666
11.08,2.2666666666666666
11.082,2.1333333333333333
11.084,2.3666666666666667
11.086,2.433333333333333
11.088000000000001,1.9333333333333333
11.09,3.033333333333333
11.092,2.5
11.094,2.7
11.096,2.1333333333333333
11.098,2.3
