Time,FHR
0.0,-1.0
0.002,-2.0
0.004,-0.5
0.006,-1.0
0.008,-0.75
0.01,-1.3125
0.012,-0.9375
0.014,-2.5625
0.016,-2.0
0.018000000000000002,-1.125
0.02,-1.0625
0.022,-2.25
0.024,-2.1875
0.026000000000000002,-1.4375
0.028,-0.1875
0.03,-0.625
0.032,-0.4375
0.034,-2.0
0.036000000000000004,-0.875
0.038,-0.75
0.04,-2.5
0.042,-1.625
0.044,-1.0625
0.046,0.125
0.048,-0.5
0.05,-0.625
0.052000000000000005,-1.3125
0.054,-0.5625
0.056,-1.4375
0.058,-1.3125
0.06,-1.4375
0.062,-0.625
0.064,-0.75
0.066,-0.75
0.068,-0.25
0.07,-1.75
0.07200000000000001,-0.9375
0.074,-1.375
0.076,-1.75
0.078,-1.125
0.08,-0.8125
0.082,-1.5625
0.084,-1.375
0.08600000000000001,-0.5
0.088,0.1875
0.09,-0.5
0.092,-1.0
0.094,-1.3125
0.096,-1.25
0.098,-0.9375
0.1,-1.125
0.10200000000000001,-0.5625
0.10400000000000001,-2.0
0.106,-1.25
0.108,-0.875
0.11,1.625
0.112,-1.375
0.114,-2.625
0.116,-2.875
0.11800000000000001,-1.5
0.12,-0.75
0.122,-1.375
0.124,-1.5
0.126,-0.125
0.128,-1.5625
0.13,-0.9375
0.132,-2.0625
0.134,-1.9375
0.136,-1.6875
0.138,0.3125
0.14,1.3125
0.14200000000000002,-0.6875
0.14400000000000002,-1.3125
0.146,-1.4375
0.148,-2.25
0.15,-1.0
0.152,-1.25
0.154,-1.0
0.156,-1.0
0.158,-1.0625
0.16,-1.3125
0.162,-2.3125
0.164,-0.8125
0.166,-0.4375
0.168,-0.4375
0.17,-0.4375
0.17200000000000001,-1.125
0.17400000000000002,-1.0625
0.176,-1.0
0.178,-1.0625
0.18,-1.5
0.182,-1.6875
0.184,-1.4375
0.186,-1.0625
0.188,-1.0
0.19,-1.5
0.192,-0.75
0.194,-0.9375
0.196,-1.375
0.198,-1.0625
0.2,-1.8125
0.202,-2.5
0.20400000000000001,-1.125
0.20600000000000002,-1.5625
0.20800000000000002,-1.875
0.21,-1.3125
0.212,-1.9375
0.214,-0.25
0.216,-0.375
0.218,-2.3125
0.22,-0.5625
0.222,-1.0625
0.224,-1.0
0.226,-0.9375
0.228,-1.625
0.23,-1.3125
0.232,-1.0
0.234,-2.5625
0.23600000000000002,-2.1875
0.23800000000000002,-0.1875
0.24,0.625
0.242,-2.625
0.244,-1.6875
0.246,-0.75
0.248,-1.3125
0.25,-1.3125
0.252,-0.5
0.254,-1.0625
0.256,-0.75
0.258,-0.9375
0.26,-0.4375
0.262,-1.625
0.264,-2.1875
0.266,-1.625
0.268,-0.5
0.27,-1.125
0.272,-1.875
0.274,-0.5625
0.276,-1.25
0.278,-1.375
0.28,-0.8125
0.28200000000000003,-1.625
0.28400000000000003,-1.3125
0.28600000000000003,-1.125
0.28800000000000003,-1.625
0.29,-1.4375
0.292,-1.1875
0.294,-1.6875
0.296,-1.0625
0.298,-0.25
0.3,-1.5
0.302,-0.375
0.304,-0.9375
0.306,-0.6875
0.308,-1.5
0.31,-1.4375
0.312,0.3125
0.314,-0.25
0.316,0.6875
0.318,-0.5625
0.32,-1.6875
0.322,-1.5625
0.324,-2.1875
0.326,-1.5
0.328,1.5625
0.33,0.3125
0.332,0.625
0.334,-0.6875
0.336,-1.1875
0.338,-0.75
0.34,0.1875
0.342,-1.1875
0.34400000000000003,-0.25
0.34600000000000003,0.75
0.34800000000000003,-0.625
0.35000000000000003,-1.9375
0.352,-1.0625
0.354,-1.6875
0.356,-1.9375
0.358,-1.1875
0.36,-0.1875
0.362,-1.5
0.364,-1.375
0.366,-1.5
0.368,-1.5625
0.37,-0.125
0.372,-2.0
0.374,-1.5
0.376,-0.4375
0.378,-1.3125
0.38,-1.0625
0.382,-0.3125
0.384,-1.0
0.386,-1.875
0.388,-1.0625
0.39,-1.25
0.392,-1.8125
0.394,-0.6875
0.396,-1.25
0.398,-2.4375
0.4,-0.875
0.402,0.8125
0.404,-1.0625
0.406,-0.4375
0.40800000000000003,-0.125
0.41000000000000003,1.0625
0.41200000000000003,0.1875
0.41400000000000003,0.8125
0.41600000000000004,3.6875
0.418,2.375
0.42,1.375
0.422,0.75
0.424,0.1875
0.426,3.125
0.428,3.5
0.43,1.25
0.432,2.1875
0.434,1.0625
0.436,0.75
0.438,0.875
0.44,-0.0625
0.442,-0.8125
0.444,-0.5
0.446,-0.75
0.448,-0.8125
0.45,-2.6875
0.452,-3.5
0.454,-2.6875
0.456,-1.75
0.458,-1.4375
0.46,-0.625
0.462,-1.0625
0.464,-0.75
0.466,-0.6875
0.468,-1.4375
0.47000000000000003,0.0
0.47200000000000003,-0.1875
0.47400000000000003,-0.875
0.47600000000000003,0.625
0.47800000000000004,-0.3125
0.48,-1.1875
0.482,-1.4375
0.484,-0.125
0.486,0.3125
0.488,-0.5625
0.49,-0.3125
0.492,0.4375
0.494,-0.8125
0.496,-0.0625
0.498,-0.75
0.5,1.25
0.502,0.9375
0.504,0.3125
0.506,-1.5625
0.508,-0.3125
0.51,-0.5
0.512,-2.0
0.514,-1.1875
0.516,0.4375
0.518,-0.1875
0.52,0.8125
0.522,0.125
0.524,-0.375
0.526,-0.375
0.528,0.1875
0.53,-0.75
0.532,-0.0625
0.534,-0.125
0.536,0.375
0.538,0.9375
0.54,0.3125
0.542,1.0
0.544,1.625
0.546,0.5625
0.548,-1.0
0.55,0.9375
0.552,0.4375
0.554,0.125
0.556,0.0
0.558,0.0625
0.56,1.5625
0.562,0.125
0.5640000000000001,0.3125
0.5660000000000001,0.3125
0.5680000000000001,-0.0625
0.5700000000000001,0.5
0.5720000000000001,1.625
0.5740000000000001,0.375
0.5760000000000001,0.5
0.578,-0.5625
0.58,0.875
0.582,1.5625
0.584,0.5
0.586,1.125
0.588,2.25
0.59,1.3125
0.592,0.75
0.594,0.75
0.596,0.4375
0.598,0.75
0.6,1.25
0.602,1.0625
0.604,0.25
0.606,0.5625
0.608,2.875
0.61,1.5625
0.612,2.125
0.614,2.6875
0.616,2.6875
0.618,2.0625
0.62,1.8125
0.622,1.0625
0.624,2.4375
0.626,3.0625
0.628,1.3125
0.63,2.6875
0.632,2.8125
0.634,2.25
0.636,3.4375
0.638,3.5625
0.64,2.5
0.642,3.3125
0.644,3.5
0.646,2.8125
0.648,2.8125
0.65,3.125
0.652,2.5
0.654,3.0625
0.656,3.0
0.658,3.125
0.66,4.5
0.662,2.4375
0.664,3.125
0.666,5.0625
0.668,4.0
0.67,3.125
0.672,2.5
0.674,3.0625
0.676,3.125
0.678,3.4375
0.68,2.6875
0.682,1.3125
0.684,3.75
0.686,2.1875
0.6880000000000001,1.75
0.6900000000000001,2.8125
0.6920000000000001,2.625
0.6940000000000001,2.1875
0.6960000000000001,2.6875
0.6980000000000001,1.5
0.7000000000000001,1.0
0.7020000000000001,2.4375
0.704,2.0
0.706,-0.25
0.708,1.3125
0.71,2.0625
0.712,1.3125
0.714,0.625
0.716,0.125
0.718,-0.0625
0.72,3.6875
0.722,0.25
0.724,0.625
0.726,-1.375
0.728,-1.3125
0.73,-0.0625
0.732,0.6875
0.734,-0.75
0.736,0.3125
0.738,0.25
0.74,0.125
0.742,-0.9375
0.744,-0.5625
0.746,-1.4375
0.748,-0.8125
0.75,0.0625
0.752,0.1875
0.754,-1.75
0.756,0.1875
0.758,0.125
0.76,-1.1875
0.762,-0.1875
0.764,-0.6875
0.766,-1.0625
0.768,0.25
0.77,-0.375
0.772,-0.5625
0.774,-1.375
0.776,-0.6875
0.778,0.0625
0.78,-0.4375
0.782,-0.5
0.784,1.0
0.786,-0.1875
0.788,-0.9375
0.79,0.0625
0.792,-0.375
0.794,-0.375
0.796,-0.5625
0.798,-1.4375
0.8,-0.6875
0.802,0.375
0.804,0.375
0.806,0.25
0.808,-0.25
0.81,0.0
0.812,-0.125
0.8140000000000001,0.125
0.8160000000000001,-1.0625
0.8180000000000001,-0.875
0.8200000000000001,0.25
0.8220000000000001,-1.0625
0.8240000000000001,-0.5
0.8260000000000001,0.5
0.8280000000000001,-0.625
0.8300000000000001,-1.5
0.8320000000000001,0.125
0.834,-0.0625
0.836,0.125
0.838,0.0625
0.84,-0.5
0.842,0.5
0.844,0.875
0.846,-0.4375
0.848,-0.75
0.85,-0.625
0.852,0.125
0.854,0.5625
0.856,-1.4375
0.858,-0.5
0.86,0.625
0.862,-0.1875
0.864,-0.5625
0.866,-0.375
0.868,0.5625
0.87,0.0
0.872,-1.25
0.874,-0.5
0.876,0.1875
0.878,0.0
0.88,-0.0625
0.882,0.5625
0.884,1.3125
0.886,-0.3125
0.888,0.1875
0.89,-0.375
0.892,0.0625
0.894,-0.125
0.896,0.9375
0.898,0.0625
0.9,-0.75
0.902,0.1875
0.904,0.5
0.906,0.125
0.908,-0.75
0.91,0.375
0.912,0.0
0.914,-0.625
0.916,-0.4375
0.918,-0.4375
0.92,0.5
0.922,1.125
0.924,-0.8125
0.926,-0.1875
0.928,-0.8125
0.93,1.0
0.932,0.6875
0.934,1.0625
0.936,0.3125
0.9380000000000001,1.125
0.9400000000000001,-0.125
0.9420000000000001,1.375
0.9440000000000001,-0.25
0.9460000000000001,-1.4375
0.9480000000000001,1.0
0.9500000000000001,0.3125
0.9520000000000001,0.0
0.9540000000000001,0.3125
0.9560000000000001,0.75
0.9580000000000001,0.3125
0.96,-1.4375
0.962,-1.0625
0.964,0.3125
0.966,0.875
0.968,0.5
0.97,-0.6875
0.972,0.4375
0.974,-0.5625
0.976,-0.1875
0.978,1.3125
0.98,0.375
0.982,0.4375
0.984,-0.1875
0.986,-0.125
0.988,-0.0625
0.99,0.75
0.992,-0.375
0.994,0.375
0.996,-0.8125
0.998,-0.5
1.0,-0.125
1.002,0.0625
1.004,0.125
1.006,0.9375
1.008,1.125
1.01,0.125
1.012,0.375
1.014,0.75
1.016,1.1875
1.018,-0.3125
1.02,-0.375
1.022,-0.875
1.024,-1.5
1.026,0.4375
1.028,0.4375
1.03,0.5625
1.032,0.5625
1.034,0.3125
1.036,-0.375
1.038,-0.125
1.04,0.875
1.042,0.625
1.044,1.0
1.046,1.25
1.048,0.3125
1.05,-0.1875
1.052,1.3125
1.054,-0.25
1.056,-0.25
1.058,1.625
1.06,-0.8125
1.062,-1.5625
1.064,-0.25
1.066,0.5
1.068,0.0
1.07,0.625
1.072,-0.4375
1.074,0.0
1.076,1.6875
1.078,2.0
1.08,0.4375
1.082,-0.375
1.084,-0.625
1.086,1.1875
1.088,1.0625
1.09,-0.1875
1.092,-0.9375
1.094,-0.1875
1.096,0.3125
1.098,-0.125
1.1,-0.875
1.102,-0.25
1.104,0.3125
1.106,1.4375
1.108,0.5
1.11,0.5
1.112,0.9375
1.114,0.25
1.116,0.625
1.118,-0.25
1.12,-0.75
1.122,0.1875
1.124,0.75
1.1260000000000001,2.6875
1.1280000000000001,0.75
1.1300000000000001,0.125
1.1320000000000001,0.875
1.1340000000000001,2.1875
1.1360000000000001,0.3125
1.1380000000000001,-0.625
1.1400000000000001,0.1875
1.1420000000000001,1.375
1.1440000000000001,-0.0625
1.1460000000000001,1.8125
1.1480000000000001,1.375
1.1500000000000001,0.0
1.1520000000000001,0.625
1.154,1.4375
1.156,1.875
1.158,2.125
1.16,0.5625
1.162,1.5625
1.164,1.25
1.166,1.3125
1.168,2.9375
1.17,-1.5625
1.172,0.6875
1.174,0.75
1.176,-0.3125
1.178,1.375
1.18,1.0625
1.182,0.5625
1.184,0.4375
1.186,-0.1875
1.188,-0.4375
1.19,0.5
1.192,0.5625
1.194,0.4375
1.196,0.125
1.198,-0.6875
1.2,0.8125
1.202,1.375
1.204,-0.625
1.206,0.3125
1.208,1.125
1.21,0.125
1.212,-0.875
1.214,-0.4375
1.216,1.25
1.218,1.1875
1.22,1.375
1.222,0.125
1.224,-1.375
1.226,-0.8125
1.228,2.125
1.23,0.75
1.232,1.0625
1.234,0.625
1.236,1.6875
1.238,3.25
1.24,3.375
1.242,2.9375
1.244,2.375
1.246,2.5625
1.248,2.625
1.25,3.4375
1.252,3.625
1.254,3.0
1.256,1.6875
1.258,2.9375
1.26,4.6875
1.262,4.3125
1.264,2.0625
1.266,1.875
1.268,0.8125
1.27,0.875
1.272,1.125
1.274,-0.25
1.276,0.0625
1.278,-0.75
1.28,-0.8125
1.282,-0.1875
1.284,-1.0625
1.286,-0.9375
1.288,0.5
1.29,0.0
1.292,-0.6875
1.294,1.75
1.296,0.75
1.298,0.1875
1.3,1.1875
1.302,0.8125
1.304,0.5
1.306,1.6875
1.308,1.8125
1.31,1.0625
1.312,0.25
1.314,1.4375
1.316,1.0
1.318,2.75
1.32,0.8125
1.322,0.5
1.324,0.75
1.326,1.0
1.328,1.375
1.33,1.25
1.332,2.375
1.334,1.0625
1.336,0.75
1.338,2.0625
1.34,1.8125
1.342,0.5
1.344,0.375
1.346,1.375
1.348,1.5625
1.35,1.5
1.352,0.875
1.354,1.6875
1.356,0.4375
1.358,0.3125
1.36,0.875
1.362,1.0
1.364,1.3125
1.366,1.5
1.368,1.1875
1.37,2.125
1.372,2.5
1.374,2.9375
1.3760000000000001,2.875
1.3780000000000001,2.625
1.3800000000000001,2.0
1.3820000000000001,0.3125
1.3840000000000001,1.8125
1.3860000000000001,1.375
1.3880000000000001,2.0625
1.3900000000000001,1.375
1.3920000000000001,1.8125
1.3940000000000001,1.4375
1.3960000000000001,1.9375
1.3980000000000001,2.9375
1.4000000000000001,1.3125
1.4020000000000001,1.75
1.4040000000000001,1.5625
1.4060000000000001,1.125
1.408,1.25
1.41,3.5
1.412,3.125
1.414,2.9375
1.416,2.9375
1.418,2.375
1.42,2.4375
1.422,3.5
1.424,1.75
1.426,2.6875
1.428,2.375
1.43,0.0625
1.432,2.5
1.434,2.375
1.436,3.6875
1.438,3.375
1.44,3.1875
1.442,2.9375
1.444,2.375
1.446,3.25
1.448,2.875
1.45,3.1875
1.452,3.1875
1.454,3.0625
1.456,3.125
1.458,3.5
1.46,4.0625
1.462,3.375
1.464,5.0
1.466,5.5
1.468,4.4375
1.47,5.5
1.472,4.6875
1.474,4.125
1.476,4.375
1.478,4.8125
1.48,3.8125
1.482,4.0
1.484,4.125
1.486,4.8125
1.488,5.0
1.49,4.9375
1.492,5.4375
1.494,4.25
1.496,3.75
1.498,4.4375
1.5,4.375
1.502,5.4375
1.504,4.4375
1.506,4.5625
1.508,4.25
1.51,4.625
1.512,3.5
1.514,5.0625
1.516,3.9375
1.518,3.25
1.52,2.5625
1.522,3.8125
1.524,3.5625
1.526,3.625
1.528,3.5625
1.53,3.0625
1.532,2.625
1.534,2.625
1.536,2.4375
1.538,1.3125
1.54,2.4375
1.542,2.0625
1.544,1.0625
1.546,1.9375
1.548,2.125
1.55,1.6875
1.552,1.9375
1.554,2.75
1.556,1.0
1.558,1.0625
1.56,0.6875
1.562,0.6875
1.564,1.5
1.566,0.75
1.568,1.3125
1.57,1.5625
1.572,1.75
1.574,-0.5
1.576,1.1875
1.578,1.75
1.58,1.6875
1.582,0.5625
1.584,0.0625
1.586,2.0625
1.588,1.0
1.59,1.5
1.592,1.6875
1.594,-0.125
1.596,0.5
1.598,2.4375
1.6,-0.25
1.602,-0.1875
1.604,-0.125
1.606,-0.875
1.608,-0.5625
1.61,-0.625
1.612,1.1875
1.614,1.6875
1.616,1.9375
1.618,2.1875
1.62,0.625
1.622,0.5625
1.624,-0.0625
1.6260000000000001,0.5625
1.6280000000000001,0.3125
1.6300000000000001,0.4375
1.6320000000000001,1.4375
1.6340000000000001,1.375
1.6360000000000001,-0.125
1.6380000000000001,-0.4375
1.6400000000000001,0.1875
1.6420000000000001,0.9375
1.6440000000000001,0.25
1.6460000000000001,0.3125
1.6480000000000001,1.3125
1.6500000000000001,0.125
1.6520000000000001,0.5625
1.6540000000000001,0.0625
1.6560000000000001,2.0
1.6580000000000001,1.6875
1.6600000000000001,1.1875
1.6620000000000001,0.5
1.6640000000000001,1.0
1.666,1.375
1.668,1.3125
1.67,0.5625
1.672,-0.1875
1.674,1.8125
1.676,-0.5
1.678,1.6875
1.68,0.5
1.682,1.0
1.684,0.9375
1.686,0.4375
1.688,0.5
1.69,0.25
1.692,1.125
1.694,3.8125
1.696,-1.0
1.698,1.125
1.7,2.125
1.702,0.8125
1.704,0.5625
1.706,0.6875
1.708,0.25
1.71,1.25
1.712,0.625
1.714,1.0
1.716,1.125
1.718,0.875
1.72,0.5
1.722,1.125
1.724,2.0625
1.726,-0.75
1.728,0.4375
1.73,3.0625
1.732,0.75
1.734,0.875
1.736,1.8125
1.738,0.375
1.74,0.8125
1.742,1.25
1.744,0.6875
1.746,0.625
1.748,1.125
1.75,2.1875
1.752,0.4375
1.754,1.0
1.756,0.9375
1.758,0.625
1.76,0.3125
1.762,0.3125
1.764,1.6875
1.766,2.3125
1.768,1.0625
1.77,0.4375
1.772,0.75
1.774,0.75
1.776,1.5625
1.778,1.0625
1.78,0.875
1.782,2.375
1.784,0.9375
1.786,0.625
1.788,0.375
1.79,-0.625
1.792,-0.875
1.794,2.0
1.796,1.0625
1.798,0.6875
1.8,0.875
1.802,1.4375
1.804,1.5
1.806,0.0
1.808,0.9375
1.81,0.4375
1.812,1.4375
1.814,1.8125
1.816,1.25
1.818,0.9375
1.82,-0.0625
1.822,0.8125
1.824,-0.3125
1.826,0.3125
1.828,0.9375
1.83,1.0625
1.832,1.6875
1.834,0.6875
1.836,1.3125
1.838,2.125
1.84,1.0625
1.842,0.75
1.844,0.125
1.846,0.9375
1.848,0.3125
1.85,-0.1875
1.852,0.4375
1.854,0.875
1.856,1.0
1.858,2.5625
1.86,0.8125
1.862,0.75
1.864,-0.1875
1.866,0.5625
1.868,0.875
1.87,0.375
1.872,0.0
1.874,1.9375
1.8760000000000001,1.125
1.8780000000000001,1.625
1.8800000000000001,1.75
1.8820000000000001,1.125
1.8840000000000001,0.5625
1.8860000000000001,1.0
1.8880000000000001,1.0625
1.8900000000000001,0.375
1.8920000000000001,-0.5
1.8940000000000001,0.4375
1.8960000000000001,1.25
1.8980000000000001,1.6875
1.9000000000000001,2.125
1.9020000000000001,0.5
1.9040000000000001,1.1875
1.9060000000000001,0.9375
1.9080000000000001,1.25
1.9100000000000001,2.0
1.9120000000000001,0.1875
1.9140000000000001,0.75
1.9160000000000001,0.4375
1.9180000000000001,0.625
1.92,0.9375
1.922,-0.5
1.924,0.1875
1.926,-0.25
1.928,0.75
1.93,0.3125
1.932,0.625
1.934,1.6875
1.936,0.375
1.938,0.4375
1.94,1.125
1.942,2.0625
1.944,1.0
1.946,0.875
1.948,1.8125
1.95,0.0
1.952,0.5625
1.954,0.875
1.956,0.625
1.958,0.3125
1.96,0.1875
1.962,0.125
1.964,1.0
1.966,2.8125
1.968,1.6875
1.97,0.1875
1.972,1.5
1.974,1.8125
1.976,2.3125
1.978,0.1875
1.98,0.6875
1.982,2.0
1.984,1.75
1.986,1.3125
1.988,0.875
1.99,1.5
1.992,1.9375
1.994,1.625
1.996,2.125
1.998,1.0625
2.0,1.875
2.0020000000000002,1.5625
2.004,0.6875
2.0060000000000002,0.5
2.008,0.8125
2.0100000000000002,2.3125
2.012,1.8125
2.0140000000000002,1.375
2.016,0.6875
2.0180000000000002,2.75
2.02,-1.125
2.0220000000000002,-1.6875
2.024,1.1875
2.0260000000000002,0.8125
2.028,1.5625
2.0300000000000002,0.5625
2.032,0.1875
2.0340000000000003,0.4375
2.036,0.125
2.0380000000000003,0.4375
2.04,1.75
2.0420000000000003,0.25
2.044,1.9375
2.0460000000000003,0.375
2.048,0.5
2.05,1.625
2.052,2.1875
2.054,-0.25
2.056,-0.0625
2.058,-0.3125
2.06,-0.0625
2.062,0.625
2.064,0.25
2.066,1.3125
2.068,0.8125
2.07,0.875
2.072,1.0625
2.074,1.375
2.076,3.25
2.078,3.75
2.08,2.875
2.082,4.375
2.084,4.4375
2.086,2.9375
2.088,2.9375
2.09,3.8125
2.092,3.0
2.094,2.4375
2.096,3.625
2.098,3.6875
2.1,2.375
2.102,1.5
2.104,1.0
2.106,1.0625
2.108,0.1875
2.11,-0.25
2.112,-0.3125
2.114,0.3125
2.116,-1.4375
2.118,-0.1875
2.12,-0.6875
2.122,-0.875
2.124,-0.4375
2.126,-0.375
2.128,1.125
2.13,2.4375
2.132,0.25
2.134,1.375
2.136,2.125
2.138,0.9375
2.14,2.75
2.142,-0.1875
2.144,0.25
2.146,1.375
2.148,0.9375
2.15,-0.1875
2.152,-0.625
2.154,0.6875
2.156,2.0
2.158,1.4375
2.16,2.3125
2.162,1.1875
2.164,1.3125
2.166,0.6875
2.168,2.0625
2.17,0.6875
2.172,0.3125
2.174,0.6875
2.176,1.0
2.178,2.5
2.18,2.0625
2.182,1.375
2.184,2.25
2.186,0.4375
2.188,0.6875
2.19,0.75
2.192,0.75
2.194,1.25
2.196,1.8125
2.198,1.375
2.2,2.0
2.202,2.3125
2.204,1.8125
2.206,1.5
2.208,0.8125
2.21,3.1875
2.212,1.6875
2.214,1.25
2.216,1.5625
2.218,1.875
2.22,2.0
2.222,2.8125
2.224,2.125
2.226,-0.1875
2.228,1.4375
2.23,2.5
2.232,2.25
2.234,2.4375
2.236,2.375
2.238,1.625
2.24,1.4375
2.242,2.4375
2.244,2.1875
2.246,2.0
2.248,1.0
2.25,3.0625
2.2520000000000002,3.3125
2.254,2.3125
2.2560000000000002,1.9375
2.258,0.875
2.2600000000000002,2.8125
2.262,2.6875
2.2640000000000002,2.375
2.266,4.0625
2.2680000000000002,3.6875
2.27,2.375
2.2720000000000002,2.375
2.274,2.875
2.2760000000000002,2.875
2.278,3.3125
2.2800000000000002,2.625
2.282,3.5
2.2840000000000003,3.75
2.286,4.375
2.2880000000000003,3.0625
2.29,3.5
2.2920000000000003,2.8125
2.294,2.6875
2.2960000000000003,3.0625
2.298,3.875
2.3000000000000003,3.8125
2.302,3.875
2.3040000000000003,3.8125
2.306,4.0
2.308,3.5
2.31,5.3125
2.312,5.0625
2.314,6.125
2.316,4.875
2.318,3.4375
2.32,3.875
2.322,3.0
2.324,3.8125
2.326,5.1875
2.328,4.625
2.33,4.75
2.332,5.6875
2.334,4.0625
2.336,4.625
2.338,3.75
2.34,3.6875
2.342,3.125
2.344,3.5
2.346,3.875
2.348,4.125
2.35,3.75
2.352,3.6875
2.354,4.0
2.356,3.625
2.358,4.375
2.36,3.0625
2.362,3.4375
2.364,3.8125
2.366,4.0625
2.368,2.25
2.37,3.0625
2.372,2.3125
2.374,1.6875
2.376,2.75
2.378,2.125
2.38,1.6875
2.382,1.1875
2.384,1.375
2.386,2.4375
2.388,2.3125
2.39,1.0625
2.392,1.0
2.394,0.375
2.396,1.1875
2.398,1.5
2.4,0.9375
2.402,0.5
2.404,1.75
2.406,0.375
2.408,1.4375
2.41,0.3125
2.412,0.0625
2.414,0.0625
2.416,0.8125
2.418,0.3125
2.42,1.25
2.422,1.5
2.424,0.6875
2.426,0.75
2.428,-0.3125
2.43,0.0625
2.432,1.1875
2.434,2.8125
2.436,0.375
2.438,-1.0625
2.44,-0.0625
2.442,0.875
2.444,1.0
2.446,0.3125
2.448,-0.125
2.45,0.625
2.452,1.25
2.454,1.0
2.456,-0.4375
2.458,1.1875
2.46,0.6875
2.462,-0.1875
2.464,1.0625
2.466,0.0625
2.468,-0.375
2.47,2.25
2.472,1.1875
2.474,0.875
2.476,0.3125
2.478,0.75
2.48,0.1875
2.482,0.25
2.484,1.6875
2.486,-0.9375
2.488,-0.375
2.49,1.9375
2.492,1.0
2.494,0.6875
2.496,1.125
2.498,1.1875
2.5,1.5625
2.5020000000000002,0.375
2.504,-0.625
2.5060000000000002,0.5
2.508,0.25
2.5100000000000002,0.875
2.512,1.625
2.5140000000000002,-0.5625
2.516,1.4375
2.5180000000000002,0.0
2.52,0.375
2.5220000000000002,0.875
2.524,1.3125
2.5260000000000002,-0.1875
2.528,0.8125
2.5300000000000002,1.5625
2.532,0.6875
2.5340000000000003,0.125
2.536,-0.0625
2.5380000000000003,0.3125
2.54,0.375
2.5420000000000003,1.1875
2.544,0.875
2.5460000000000003,1.0625
2.548,1.25
2.5500000000000003,0.5
2.552,0.9375
2.5540000000000003,0.625
2.556,0.625
2.5580000000000003,1.375
2.56,1.125
2.562,0.375
2.564,0.5625
2.566,-0.25
2.568,1.3125
2.57,2.0625
2.572,2.0
2.574,0.875
2.576,-0.4375
2.578,1.1875
2.58,1.625
2.582,0.3125
2.584,0.875
2.586,0.4375
2.588,0.375
2.59,0.375
2.592,0.125
2.594,0.6875
2.596,-0.5625
2.598,1.3125
2.6,0.8125
2.602,0.1875
2.604,0.5625
2.606,0.1875
2.608,0.875
2.61,1.3125
2.612,0.625
2.614,0.625
2.616,0.375
2.618,0.1875
2.62,-0.5
2.622,1.0
2.624,0.3125
2.626,1.0625
2.628,1.0625
2.63,0.9375
2.632,0.0
2.634,0.375
2.636,0.75
2.638,1.625
2.64,1.4375
2.642,0.1875
2.644,1.25
2.646,0.375
2.648,0.875
2.65,0.125
2.652,0.4375
2.654,1.5625
2.656,1.0
2.658,0.5
2.66,0.375
2.662,1.3125
2.664,0.0
2.666,0.0
2.668,0.5
2.67,-0.375
2.672,0.4375
2.674,1.6875
2.676,0.0
2.678,-0.75
2.68,0.625
2.682,0.0625
2.684,0.125
2.686,-0.375
2.688,-0.5625
2.69,0.3125
2.692,0.9375
2.694,1.1875
2.696,0.8125
2.698,-0.625
2.7,0.5625
2.702,0.375
2.704,1.3125
2.706,-0.375
2.708,0.0
2.71,-0.1875
2.712,0.375
2.714,1.0625
2.716,0.1875
2.718,0.875
2.72,-0.0625
2.722,1.625
2.724,2.0
2.726,1.5
2.728,0.4375
2.73,0.75
2.732,0.4375
2.734,1.8125
2.736,0.3125
2.738,0.6875
2.74,0.0625
2.742,0.625
2.744,0.8125
2.746,1.5
2.748,0.875
2.75,1.9375
2.7520000000000002,0.5625
2.754,0.5625
2.7560000000000002,0.875
2.758,1.5625
2.7600000000000002,0.9375
2.762,1.375
2.7640000000000002,0.9375
2.766,0.0
2.7680000000000002,0.1875
2.77,0.75
2.7720000000000002,1.3125
2.774,0.8125
2.7760000000000002,0.9375
2.778,1.125
2.7800000000000002,1.0
2.782,-0.5625
2.7840000000000003,0.75
2.786,1.125
2.7880000000000003,0.8125
2.79,-0.1875
2.7920000000000003,0.75
2.794,-0.5625
2.7960000000000003,-1.9375
2.798,0.5625
2.8000000000000003,1.1875
2.802,0.125
2.8040000000000003,-0.25
2.806,0.4375
2.8080000000000003,1.0
2.81,-0.375
2.8120000000000003,0.5625
2.814,-0.125
2.816,0.0
2.818,-0.1875
2.82,0.8125
2.822,1.3125
2.824,0.8125
2.826,1.5
2.828,-0.5625
2.83,-0.1875
2.832,-0.125
2.834,-0.1875
2.836,1.75
2.838,1.6875
2.84,1.3125
2.842,2.125
2.844,2.0625
2.846,2.25
2.848,2.6875
2.85,2.6875
2.852,3.0625
2.854,2.0625
2.856,2.875
2.858,2.5
2.86,3.1875
2.862,3.25
2.864,4.25
2.866,3.375
2.868,0.75
2.87,1.5625
2.872,0.25
2.874,0.4375
2.876,0.9375
2.878,-2.125
2.88,-1.125
2.882,-2.1875
2.884,-0.125
2.886,0.25
2.888,-0.5625
2.89,-1.3125
2.892,-0.5
2.894,-0.875
2.896,-0.0625
2.898,0.5
2.9,0.9375
2.902,1.75
2.904,0.125
2.906,0.3125
2.908,1.8125
2.91,0.5625
2.912,0.375
2.914,0.6875
2.916,0.4375
2.918,1.375
2.92,1.25
2.922,0.375
2.924,1.1875
2.926,0.25
2.928,1.1875
2.93,0.4375
2.932,0.9375
2.934,1.5625
2.936,1.4375
2.938,1.4375
2.94,0.75
2.942,1.75
2.944,0.875
2.946,1.25
2.948,0.5625
2.95,0.0
2.952,1.375
2.954,0.8125
2.956,1.8125
2.958,2.0
2.96,1.3125
2.962,-0.5625
2.964,0.875
2.966,0.6875
2.968,1.1875
2.97,1.3125
2.972,0.9375
2.974,0.4375
2.976,1.75
2.978,1.0
2.98,1.8125
2.982,1.625
2.984,2.1875
2.986,1.375
2.988,1.4375
2.99,1.1875
2.992,2.375
2.994,0.8125
2.996,0.0625
2.998,1.3125
3.0,1.375
3.0020000000000002,1.1875
3.004,1.8125
3.0060000000000002,2.0
3.008,2.5625
3.0100000000000002,2.375
3.012,1.8125
3.0140000000000002,1.8125
3.016,1.4375
3.0180000000000002,2.125
3.02,2.5625
3.0220000000000002,1.875
3.024,2.1875
3.0260000000000002,2.625
3.028,3.0625
3.0300000000000002,2.3125
3.032,1.25
3.0340000000000003,1.1875
3.036,1.3125
3.0380000000000003,3.25
3.04,2.5625
3.0420000000000003,3.0
3.044,2.625
3.0460000000000003,2.4375
3.048,3.1875
3.0500000000000003,2.125
3.052,2.9375
3.0540000000000003,2.5
3.056,3.75
3.0580000000000003,2.8125
3.06,2.4375
3.0620000000000003,2.75
3.064,3.125
3.0660000000000003,3.75
3.068,2.5
3.0700000000000003,2.3125
3.072,3.625
3.074,4.25
3.076,4.1875
3.078,4.0625
3.08,4.625
3.082,5.0
3.084,4.875
3.086,3.3125
3.088,3.875
3.09,4.0
3.092,4.1875
3.094,4.1875
3.096,3.8125
3.098,4.75
3.1,4.0
3.102,3.0625
3.104,4.1875
3.106,4.5
3.108,3.3125
3.11,4.0625
3.112,3.4375
3.114,3.8125
3.116,3.75
3.118,3.3125
3.12,3.375
3.122,3.4375
3.124,2.9375
3.126,2.4375
3.128,3.9375
3.13,2.625
3.132,2.625
3.134,2.3125
3.136,3.25
3.138,4.6875
3.14,1.75
3.142,1.8125
3.144,2.125
3.146,-0.0625
3.148,1.25
3.15,1.5
3.152,0.4375
3.154,0.4375
3.156,1.4375
3.158,1.25
3.16,1.8125
3.162,0.6875
3.164,0.4375
3.166,0.75
3.168,1.0625
3.17,1.3125
3.172,0.9375
3.174,1.4375
3.176,1.0625
3.178,0.3125
3.18,0.4375
3.182,0.25
3.184,-0.625
3.186,0.0625
3.188,-0.8125
3.19,-0.875
3.192,0.625
3.194,0.9375
3.196,0.75
3.198,0.0625
3.2,0.6875
3.202,0.4375
3.204,0.1875
3.206,0.25
3.208,0.3125
3.21,0.1875
3.212,-0.5
3.214,-0.25
3.216,0.875
3.218,-2.0
3.22,0.3125
3.222,-0.25
3.224,0.9375
3.226,0.5
3.228,0.25
3.23,0.875
3.232,0.5
3.234,1.875
3.236,0.6875
3.238,-1.625
3.24,-0.5
3.242,1.0
3.244,0.4375
3.246,-0.375
3.248,0.25
3.25,-0.0625
3.2520000000000002,-0.0625
3.254,1.625
3.2560000000000002,1.4375
3.258,0.75
3.2600000000000002,1.5625
3.262,1.125
3.2640000000000002,-0.0625
3.266,0.625
3.2680000000000002,0.3125
3.27,-0.25
3.2720000000000002,0.0625
3.274,0.0625
3.2760000000000002,0.0625
3.278,1.4375
3.2800000000000002,1.125
3.282,0.4375
3.2840000000000003,0.375
3.286,0.3125
3.2880000000000003,0.3125
3.29,0.3125
3.2920000000000003,0.0625
3.294,0.1875
3.2960000000000003,0.1875
3.298,-0.1875
3.3000000000000003,1.0625
3.302,2.25
3.3040000000000003,1.625
3.306,-1.1875
3.3080000000000003,1.125
3.31,1.0625
3.3120000000000003,0.1875
3.314,-0.125
3.3160000000000003,-0.5
3.318,0.5
3.3200000000000003,1.0625
3.322,-0.125
3.3240000000000003,2.0625
3.326,0.5625
3.3280000000000003,0.625
3.33,0.3125
3.332,0.25
3.334,0.375
3.336,1.5625
3.338,0.8125
3.34,0.125
3.342,1.125
3.344,1.5
3.346,1.125
3.348,1.125
3.35,-0.5625
3.352,-0.25
3.354,1.125
3.356,1.4375
3.358,-0.8125
3.36,0.0625
3.362,2.4375
3.364,0.5625
3.366,0.0625
3.368,1.0
3.37,1.25
3.372,0.0
3.374,0.1875
3.376,0.5
3.378,0.1875
3.38,0.125
3.382,-1.125
3.384,-0.1875
3.386,0.4375
3.388,0.5625
3.39,0.6875
3.392,0.5625
3.394,0.875
3.396,0.9375
3.398,0.875
3.4,0.625
3.402,0.625
3.404,0.625
3.406,0.125
3.408,1.25
3.41,1.1875
3.412,-0.75
3.414,0.5625
3.416,-1.4375
3.418,2.5
3.42,0.75
3.422,0.25
3.424,0.125
3.426,-0.1875
3.428,0.6875
3.43,0.5625
3.432,0.1875
3.434,0.875
3.436,0.5625
3.438,0.125
3.44,0.0625
3.442,1.4375
3.444,0.6875
3.446,1.1875
3.448,1.25
3.45,0.9375
3.452,-0.25
3.454,0.625
3.456,0.375
3.458,0.25
3.46,0.3125
3.462,1.125
3.464,0.375
3.466,-0.5625
3.468,1.125
3.47,0.75
3.472,0.3125
3.474,0.8125
3.476,0.5
3.478,-0.4375
3.48,0.0
3.482,1.25
3.484,0.3125
3.486,-0.8125
3.488,0.6875
3.49,0.5
3.492,0.5625
3.494,0.1875
3.496,0.875
3.498,0.8125
3.5,1.25
3.5020000000000002,0.3125
3.504,1.125
3.5060000000000002,1.4375
3.508,1.0625
3.5100000000000002,1.1875
3.512,1.375
3.5140000000000002,-1.3125
3.516,-0.75
3.5180000000000002,0.9375
3.52,0.6875
3.5220000000000002,-0.625
3.524,-0.375
3.5260000000000002,1.0625
3.528,1.6875
3.5300000000000002,1.375
3.532,1.4375
3.5340000000000003,1.75
3.536,1.625
3.5380000000000003,2.3125
3.54,0.5
3.5420000000000003,1.4375
3.544,0.9375
3.5460000000000003,1.0
3.548,0.375
3.5500000000000003,1.125
3.552,0.6875
3.5540000000000003,1.25
3.556,0.9375
3.5580000000000003,2.0625
3.56,1.4375
3.5620000000000003,0.3125
3.564,1.3125
3.5660000000000003,1.375
3.568,0.75
3.5700000000000003,0.6875
3.572,0.25
3.5740000000000003,0.1875
3.576,1.3125
3.5780000000000003,1.125
3.58,-0.5625
3.5820000000000003,0.4375
3.584,2.125
3.586,0.375
3.588,1.125
3.59,0.5
3.592,0.25
3.594,0.625
3.596,0.25
3.598,-1.0
3.6,-0.0625
3.602,1.0625
3.604,1.1875
3.606,0.3125
3.608,1.1875
3.61,0.8125
3.612,0.125
3.614,-0.125
3.616,0.875
3.618,0.6875
3.62,0.5
3.622,0.0625
3.624,-0.9375
3.626,0.9375
3.628,0.375
3.63,0.625
3.632,2.0625
3.634,2.4375
3.636,2.8125
3.638,3.3125
3.64,3.0
3.642,2.625
3.644,4.4375
3.646,3.0625
3.648,2.75
3.65,3.5
3.652,3.3125
3.654,3.125
3.656,2.8125
3.658,4.875
3.66,2.8125
3.662,3.1875
3.664,1.625
3.666,0.1875
3.668,1.0625
3.67,2.0625
3.672,0.5625
3.674,-0.5625
3.676,-1.1875
3.678,-0.5625
3.68,-0.0625
3.682,-0.375
3.684,-0.8125
3.686,0.1875
3.688,1.0625
3.69,0.375
3.692,0.9375
3.694,1.375
3.696,2.625
3.698,1.0
3.7,0.6875
3.702,0.8125
3.704,0.625
3.706,0.875
3.708,0.625
3.71,0.25
3.712,2.25
3.714,0.625
3.716,1.375
3.718,2.625
3.72,0.3125
3.722,-0.1875
3.724,0.6875
3.726,1.125
3.728,1.625
3.73,1.125
3.732,1.8125
3.734,-0.1875
3.736,1.1875
3.738,1.5625
3.74,2.375
3.742,1.5625
3.744,2.0
3.746,2.4375
3.748,1.9375
3.75,1.4375
3.7520000000000002,1.9375
3.754,0.9375
3.7560000000000002,2.5
3.758,0.875
3.7600000000000002,1.9375
3.762,1.25
3.7640000000000002,0.9375
3.766,2.125
3.7680000000000002,0.9375
3.77,1.125
3.7720000000000002,1.3125
3.774,0.75
3.7760000000000002,3.3125
3.778,2.3125
3.7800000000000002,2.0
3.782,2.1875
3.7840000000000003,2.375
3.786,1.875
3.7880000000000003,1.625
3.79,2.5
3.7920000000000003,2.1875
3.794,1.5
3.7960000000000003,1.5625
3.798,3.0
3.8000000000000003,1.25
3.802,2.1875
3.8040000000000003,2.125
3.806,2.4375
3.8080000000000003,2.25
3.81,2.75
3.8120000000000003,2.375
3.814,1.0625
3.8160000000000003,1.0
3.818,2.125
3.8200000000000003,2.875
3.822,3.3125
3.8240000000000003,2.625
3.826,3.625
3.8280000000000003,2.1875
3.83,2.625
3.8320000000000003,2.625
3.834,2.8125
3.8360000000000003,3.75
3.838,2.875
3.84,3.5625
3.842,4.6875
3.844,3.625
3.846,3.0625
3.848,3.5
3.85,4.1875
3.852,3.5625
3.854,3.8125
3.856,3.3125
3.858,4.5625
3.86,4.125
3.862,4.0625
3.864,4.0625
3.866,4.1875
3.868,3.5625
3.87,3.9375
3.872,3.5625
3.874,4.5625
3.876,4.3125
3.878,4.5625
3.88,6.25
3.882,1.9375
3.884,5.0
3.886,4.125
3.888,5.125
3.89,5.75
3.892,4.9375
3.894,4.75
3.896,4.1875
3.898,5.4375
3.9,3.375
3.902,2.375
3.904,4.25
3.906,5.0625
3.908,5.8125
3.91,4.875
3.912,3.9375
3.914,5.3125
3.916,4.0625
3.918,4.5625
3.92,4.4375
3.922,3.0
3.924,2.625
3.926,2.3125
3.928,2.5625
3.93,2.8125
3.932,2.6875
3.934,3.375
3.936,1.9375
3.938,1.75
3.94,1.8125
3.942,2.0625
3.944,2.0625
3.946,1.9375
3.948,1.5625
3.95,1.8125
3.952,1.375
3.954,1.75
3.956,1.125
3.958,2.1875
3.96,0.875
3.962,0.5
3.964,2.0625
3.966,0.8125
3.968,0.625
3.97,0.3125
3.972,0.125
3.974,1.3125
3.976,0.875
3.978,1.8125
3.98,1.0
3.982,-0.125
3.984,0.9375
3.986,0.4375
3.988,0.75
3.99,1.5
3.992,0.6875
3.994,0.3125
3.996,1.4375
3.998,1.3125
4.0,2.3125
4.002,1.25
4.0040000000000004,-0.9375
4.006,1.4375
4.008,-0.1875
4.01,-0.9375
4.0120000000000005,0.5625
4.014,0.5625
4.016,1.0625
4.018,1.1875
4.0200000000000005,1.125
4.022,1.5625
4.024,0.8125
4.026,1.125
4.0280000000000005,0.625
4.03,0.5
4.032,0.8125
4.034,0.5
4.0360000000000005,0.5625
4.038,0.3125
4.04,1.4375
4.042,0.875
4.0440000000000005,1.1875
4.046,1.625
4.048,1.1875
4.05,0.875
4.0520000000000005,0.875
4.054,0.4375
4.056,0.25
4.058,0.0
4.0600000000000005,0.5625
4.062,2.0625
4.064,2.4375
4.066,1.4375
4.0680000000000005,-0.6875
4.07,0.875
4.072,1.25
4.074,0.6875
4.0760000000000005,0.0625
4.078,1.4375
4.08,0.75
4.082,0.4375
4.0840000000000005,0.4375
4.086,0.5
4.088,2.75
4.09,2.0625
4.0920000000000005,1.375
4.094,0.125
4.096,1.375
4.098,0.1875
4.1,0.875
4.102,0.8125
4.104,-0.25
4.106,0.75
4.108,0.125
4.11,0.625
4.112,1.75
4.114,1.25
4.116,1.25
4.118,1.4375
4.12,1.375
4.122,1.25
4.124,1.25
4.126,0.625
4.128,1.3125
4.13,0.4375
4.132,1.375
4.134,1.4375
4.136,0.375
4.138,1.0
4.14,1.625
4.142,1.375
4.144,0.5
4.146,0.5625
4.148,0.5
4.15,0.75
4.152,2.9375
4.154,0.75
4.156,0.5
4.158,1.9375
4.16,1.0625
4.162,-0.1875
4.164,0.375
4.166,1.0
4.168,1.4375
4.17,0.3125
4.172,2.625
4.174,0.4375
4.176,1.4375
4.178,0.8125
4.18,1.4375
4.182,1.8125
4.184,0.3125
4.186,-0.5
4.188,1.8125
4.19,2.0625
4.192,1.1875
4.194,0.625
4.196,1.3125
4.198,0.8125
4.2,0.1875
4.202,0.75
4.204,0.6875
4.206,0.4375
4.208,0.8125
4.21,1.8125
4.212,0.9375
4.214,0.5625
4.216,0.625
4.218,0.625
4.22,0.75
4.222,2.0625
4.224,1.4375
4.226,0.625
4.228,0.75
4.23,0.0
4.232,0.5625
4.234,0.625
4.236,0.375
4.238,0.9375
4.24,1.25
4.242,2.1875
4.244,0.4375
4.246,0.125
4.248,0.625
4.25,0.5625
4.252,0.4375
4.2540000000000004,1.0
4.256,0.625
4.258,1.375
4.26,0.4375
4.2620000000000005,0.9375
4.264,0.5625
4.266,2.6875
4.268,0.5625
4.2700000000000005,2.125
4.272,1.3125
4.274,1.0
4.276,0.125
4.2780000000000005,0.0
4.28,1.0
4.282,0.625
4.284,0.6875
4.2860000000000005,1.125
4.288,2.1875
4.29,1.0625
4.292,1.75
4.2940000000000005,0.9375
4.296,-0.125
4.298,-0.25
4.3,0.0625
4.3020000000000005,0.5625
4.304,0.75
4.306,1.0
4.308,0.6875
4.3100000000000005,0.0
4.312,1.125
4.314,1.0
4.316,1.375
4.3180000000000005,1.5
4.32,1.375
4.322,0.3125
4.324,1.125
4.3260000000000005,0.6875
4.328,0.6875
4.33,0.8125
4.332,1.4375
4.3340000000000005,1.3125
4.336,0.5625
4.338,1.4375
4.34,1.1875
4.3420000000000005,1.3125
4.344,1.5625
4.346,0.5
4.348,2.1875
4.3500000000000005,0.6875
4.352,0.6875
4.354,2.4375
4.356,1.875
4.358,0.125
4.36,1.625
4.362,1.6875
4.364,1.5625
4.366,1.125
4.368,0.4375
4.37,1.4375
4.372,2.625
4.374,1.5
4.376,0.4375
4.378,1.4375
4.38,0.5625
4.382,-0.375
4.384,0.8125
4.386,0.4375
4.388,0.8125
4.39,1.5
4.392,1.5625
4.394,-0.0625
4.396,1.125
4.398,1.1875
4.4,1.1875
4.402,0.0625
4.404,0.125
4.406,0.125
4.408,-0.5625
4.41,0.3125
4.412,1.375
4.414,-0.25
4.416,1.125
4.418,0.0
4.42,1.75
4.422,1.0
4.424,0.375
4.426,0.125
4.428,1.25
4.43,1.8125
4.432,2.0625
4.434,4.3125
4.436,3.9375
4.438,3.625
4.44,4.1875
4.442,3.375
4.444,3.1875
4.446,2.8125
4.448,3.125
4.45,3.375
4.452,3.5
4.454,3.625
4.456,3.375
4.458,3.3125
4.46,1.9375
4.462,0.5
4.464,1.1875
4.466,1.5
4.468,-0.125
4.47,-0.0625
4.472,-1.25
4.474,-0.6875
4.476,-1.0
4.478,0.1875
4.48,0.4375
4.482,0.6875
4.484,1.25
4.486,1.375
4.488,1.75
4.49,1.4375
4.492,2.3125
4.494,1.0625
4.496,0.4375
4.498,1.1875
4.5,1.25
4.502,0.8125
4.5040000000000004,0.875
4.506,0.4375
4.508,1.375
4.51,1.5
4.5120000000000005,1.1875
4.514,1.375
4.516,2.0625
4.518,1.0625
4.5200000000000005,1.8125
4.522,0.75
4.524,-0.1875
4.526,1.25
4.5280000000000005,2.0
4.53,2.8125
4.532,2.125
4.534,0.9375
4.5360000000000005,1.0625
4.538,2.375
4.54,1.6875
4.542,0.5
4.5440000000000005,1.3125
4.546,1.8125
4.548,1.25
4.55,0.875
4.5520000000000005,1.125
4.554,1.625
4.556,1.1875
4.558,3.4375
4.5600000000000005,2.5625
4.562,1.125
4.564,0.6875
4.566,0.375
4.5680000000000005,1.4375
4.57,1.9375
4.572,2.875
4.574,2.1875
4.5760000000000005,1.1875
4.578,2.5625
4.58,1.875
4.582,1.3125
4.5840000000000005,1.375
4.586,2.5
4.588,2.4375
4.59,1.8125
4.5920000000000005,0.5625
4.594,4.125
4.596,2.0
4.598,2.6875
4.6000000000000005,2.125
4.602,2.9375
4.604,1.75
4.606,1.875
4.6080000000000005,1.8125
4.61,2.125
4.612,3.5625
4.614,2.125
4.616,1.6875
4.618,3.5
4.62,3.5625
4.622,3.8125
4.624,4.0
4.626,3.8125
4.628,3.0
4.63,2.5625
4.632,2.5
4.634,2.9375
4.636,3.8125
4.638,3.5
4.64,3.5
4.642,4.0
4.644,3.0
4.646,4.5625
4.648,4.5625
4.65,4.9375
4.652,3.5
4.654,3.625
4.656,3.125
4.658,4.0625
4.66,5.3125
4.662,5.0625
4.664,5.0625
4.666,5.4375
4.668,4.4375
4.67,4.75
4.672,4.6875
4.674,3.75
4.676,4.375
4.678,6.875
4.68,5.625
4.682,4.5
4.684,5.0625
4.686,3.875
4.688,3.375
4.69,3.3125
4.692,3.0625
4.694,3.625
4.696,5.0625
4.698,5.9375
4.7,2.75
4.702,3.1875
4.704,2.875
4.706,3.9375
4.708,3.0625
4.71,2.4375
4.712,3.0625
4.714,3.9375
4.716,1.9375
4.718,2.0
4.72,2.6875
4.722,2.25
4.724,1.3125
4.726,1.5
4.728,1.5625
4.73,2.125
4.732,1.8125
4.734,1.0625
4.736,0.9375
4.738,1.8125
4.74,1.625
4.742,1.5
4.744,0.25
4.746,0.4375
4.748,0.625
4.75,-0.5
4.752,1.75
4.7540000000000004,1.5
4.756,1.0
4.758,0.5625
4.76,1.8125
4.7620000000000005,0.75
4.764,-0.375
4.766,1.625
4.768,0.875
4.7700000000000005,0.0
4.772,0.5
4.774,0.6875
4.776,0.25
4.7780000000000005,1.125
4.78,0.9375
4.782,0.625
4.784,-0.1875
4.7860000000000005,1.1875
4.788,0.25
4.79,0.75
4.792,0.5
4.7940000000000005,0.5625
4.796,2.0625
4.798,1.25
4.8,2.375
4.8020000000000005,0.625
4.804,0.125
4.806,0.8125
4.808,0.1875
4.8100000000000005,0.0
4.812,-0.25
4.814,-0.375
4.816,0.625
4.8180000000000005,0.4375
4.82,0.9375
4.822,1.6875
4.824,1.0625
4.8260000000000005,1.1875
4.828,-0.5
4.83,-0.0625
4.832,-0.5625
4.8340000000000005,0.6875
4.836,0.125
4.838,-0.1875
4.84,1.125
4.8420000000000005,0.375
4.844,-0.5
4.846,1.5
4.848,2.5625
4.8500000000000005,-0.125
4.852,-0.25
4.854,0.375
4.856,-0.125
4.8580000000000005,1.0
4.86,1.0625
4.862,0.4375
4.864,0.9375
4.866,1.8125
4.868,1.0625
4.87,1.8125
4.872,1.1875
4.874,0.875
4.876,0.625
4.878,0.375
4.88,0.125
4.882,-0.3125
4.884,2.375
4.886,1.1875
4.888,0.5
4.89,0.25
4.892,0.5625
4.894,0.125
4.896,1.125
4.898,1.4375
4.9,0.1875
4.902,0.5625
4.904,0.5
4.906,1.125
4.908,0.75
4.91,0.625
4.912,0.75
4.914,0.625
4.916,0.1875
4.918,0.9375
4.92,1.875
4.922,0.9375
4.924,1.0625
4.926,1.3125
4.928,-0.0625
4.93,0.5625
4.932,0.8125
4.934,0.625
4.936,1.25
4.938,0.75
4.94,0.0
4.942,-0.1875
4.944,0.25
4.946,-0.0625
4.948,1.125
4.95,1.125
4.952,-0.3125
4.954,1.625
4.956,1.0625
4.958,1.5
4.96,0.5625
4.962,-0.6875
4.964,2.0625
4.966,0.625
4.968,-0.5625
4.97,0.625
4.972,1.1875
4.974,-0.125
4.976,0.5
4.978,0.25
4.98,0.625
4.982,0.75
4.984,1.375
4.986,0.9375
4.988,0.4375
4.99,1.3125
4.992,-0.0625
4.994,0.6875
4.996,1.25
4.998,0.25
5.0,0.875
5.002,0.0625
5.0040000000000004,-0.1875
5.006,-0.125
5.008,0.5625
5.01,0.9375
5.0120000000000005,0.5
5.014,1.1875
5.016,0.6875
5.018,-0.5625
5.0200000000000005,0.0
5.022,-0.25
5.024,0.125
5.026,0.375
5.0280000000000005,1.375
5.03,1.3125
5.032,-0.875
5.034,0.875
5.0360000000000005,0.5
5.038,-0.3125
5.04,0.3125
5.042,0.5
5.0440000000000005,-0.1875
5.046,0.25
5.048,1.5625
5.05,0.1875
5.0520000000000005,1.3125
5.054,1.0625
5.056,0.25
5.058,1.6875
5.0600000000000005,0.625
5.062,0.125
5.064,0.5625
5.066,1.125
5.0680000000000005,1.0
5.07,0.25
5.072,0.5
5.074,1.3125
5.0760000000000005,0.5625
5.078,2.25
5.08,1.375
5.082,1.5625
5.0840000000000005,1.4375
5.086,0.3125
5.088,0.75
5.09,2.875
5.0920000000000005,1.5
5.094,0.6875
5.096,0.3125
5.098,1.0625
5.1000000000000005,0.375
5.102,0.375
5.104,0.25
5.106,0.625
5.1080000000000005,0.4375
5.11,0.5
5.112,1.375
5.114,0.1875
5.1160000000000005,0.8125
5.118,0.5
5.12,-0.4375
5.122,-0.6875
5.124,0.1875
5.126,0.5
5.128,-0.6875
5.13,-0.375
5.132,0.625
5.134,-1.4375
5.136,-0.4375
5.138,0.625
5.14,0.8125
5.142,0.5625
5.144,0.125
5.146,0.0
5.148,0.4375
5.15,0.875
5.152,0.125
5.154,1.875
5.156,0.875
5.158,-0.25
5.16,0.0625
5.162,0.6875
5.164,1.625
5.166,3.625
5.168,2.6875
5.17,2.875
5.172,2.75
5.174,2.5
5.176,2.125
5.178,3.0625
5.18,2.375
5.182,2.75
5.184,4.6875
5.186,4.5
5.188,3.875
5.19,2.4375
5.192,2.4375
5.194,0.5
5.196,0.125
5.198,-1.0
5.2,0.125
5.202,-0.4375
5.204,-0.5
5.206,-1.6875
5.208,-1.0
5.21,-1.1875
5.212,-0.9375
5.214,-0.6875
5.216,-0.0625
5.218,-0.5
5.22,-1.1875
5.222,0.6875
5.224,1.125
5.226,0.0
5.228,0.4375
5.23,1.1875
5.232,-0.5
5.234,0.625
5.236,0.9375
5.238,1.1875
5.24,1.6875
5.242,1.125
5.244,0.6875
5.246,0.25
5.248,1.6875
5.25,1.125
5.252,0.6875
5.2540000000000004,1.1875
5.256,1.0625
5.258,0.625
5.26,-0.5625
5.2620000000000005,-0.75
5.264,0.4375
5.266,2.3125
5.268,0.75
5.2700000000000005,2.5
5.272,2.6875
5.274,0.4375
5.276,1.625
5.2780000000000005,0.4375
5.28,1.0625
5.282,0.4375
5.284,0.125
5.2860000000000005,0.625
5.288,-0.125
5.29,1.1875
5.292,3.5625
5.2940000000000005,2.0
5.296,1.75
5.298,2.4375
5.3,2.3125
5.3020000000000005,0.875
5.304,1.125
5.306,1.5
5.308,0.875
5.3100000000000005,0.875
5.312,0.875
5.314,0.6875
5.316,0.5625
5.3180000000000005,1.0625
5.32,1.5625
5.322,0.5625
5.324,1.5625
5.3260000000000005,1.625
5.328,2.125
5.33,1.375
5.332,1.9375
5.3340000000000005,1.75
5.336,2.75
5.338,1.3125
5.34,2.125
5.3420000000000005,2.125
5.344,2.4375
5.346,2.25
5.348,1.8125
5.3500000000000005,1.75
5.352,2.0625
5.354,1.8125
5.356,2.625
5.3580000000000005,3.75
5.36,2.125
5.362,2.875
5.364,2.8125
5.3660000000000005,2.4375
5.368,2.6875
5.37,2.5625
5.372,3.0625
5.3740000000000006,3.125
5.376,2.375
5.378,1.75
5.38,3.6875
5.382,1.5625
5.384,3.4375
5.386,1.9375
5.388,3.25
5.39,3.8125
5.392,3.625
5.394,3.125
5.396,5.3125
5.398,4.125
5.4,3.5625
5.402,3.625
5.404,4.0625
5.406,4.625
5.408,3.75
5.41,3.75
5.412,4.1875
5.414,4.0
5.416,3.375
5.418,2.75
5.42,4.0
5.422,3.9375
5.424,4.1875
5.426,4.0625
5.428,3.8125
5.43,3.8125
5.432,3.9375
5.434,3.9375
5.436,3.4375
5.438,3.5625
5.44,4.0
5.442,3.5625
5.444,3.375
5.446,3.0
5.448,3.1875
5.45,4.25
5.452,3.25
5.454,2.0625
5.456,1.1875
5.458,1.625
5.46,1.625
5.462,2.1875
5.464,0.3125
5.466,0.125
5.468,1.3125
5.47,2.1875
5.472,1.1875
5.474,1.75
5.476,-0.6875
5.478,-0.4375
5.48,2.0625
5.482,1.0625
5.484,0.4375
5.486,0.75
5.488,0.875
5.49,0.5625
5.492,0.8125
5.494,-1.0
5.496,-0.125
5.498,0.75
5.5,0.6875
5.502,1.3125
5.5040000000000004,1.25
5.506,-0.375
5.508,-0.25
5.51,-0.6875
5.5120000000000005,-0.0625
5.514,-0.0625
5.516,0.25
5.518,-0.3125
5.5200000000000005,0.625
5.522,0.6875
5.524,0.0
5.526,-0.4375
5.5280000000000005,0.375
5.53,-0.0625
5.532,0.0625
5.534,-0.6875
5.5360000000000005,-0.875
5.538,0.5
5.54,-0.3125
5.542,1.625
5.5440000000000005,-0.125
5.546,-2.0
5.548,-0.25
5.55,-0.8125
5.5520000000000005,-1.125
5.554,-0.125
5.556,0.8125
5.558,0.5625
5.5600000000000005,-0.0625
5.562,-2.5625
5.564,-0.5625
5.566,0.75
5.5680000000000005,0.1875
5.57,-0.0625
5.572,-0.3125
5.574,0.625
5.5760000000000005,0.4375
5.578,0.4375
5.58,0.3125
5.582,-0.1875
5.5840000000000005,0.4375
5.586,1.3125
5.588,-0.125
5.59,-0.6875
5.5920000000000005,0.0
5.594,0.0625
5.596,-0.0625
5.598,2.375
5.6000000000000005,-0.8125
5.602,-0.375
5.604,-0.25
5.606,-0.5
5.6080000000000005,-0.25
5.61,0.0
5.612,-0.5
5.614,0.3125
5.6160000000000005,-0.0625
5.618,-0.5625
5.62,0.0625
5.622,1.375
5.6240000000000006,0.8125
5.626,-0.375
5.628,-0.5
5.63,-0.1875
5.632,-0.25
5.634,0.625
5.636,-0.1875
5.638,0.5
5.64,0.0625
5.642,-0.0625
5.644,0.4375
5.646,-0.4375
5.648,0.4375
5.65,-0.375
5.652,0.5625
5.654,-0.0625
5.656,0.4375
5.658,0.4375
5.66,0.0625
5.662,0.125
5.664,0.8125
5.666,-0.4375
5.668,-0.5
5.67,0.3125
5.672,-0.5625
5.674,0.6875
5.676,0.75
5.678,-0.5
5.68,-0.75
5.682,0.4375
5.684,-0.625
5.686,-0.5625
5.688,0.4375
5.69,-0.125
5.692,-0.5
5.694,0.0
5.696,1.0
5.698,-0.0625
5.7,1.1875
5.702,-0.375
5.704,-0.5
5.706,-0.5
5.708,-0.1875
5.71,-0.375
5.712,-0.0625
5.714,-1.5625
5.716,-0.375
5.718,0.625
5.72,0.375
5.722,-0.1875
5.724,-0.5
5.726,-0.5
5.728,0.0625
5.73,0.125
5.732,0.125
5.734,0.375
5.736,0.3125
5.738,-1.1875
5.74,-0.3125
5.742,0.6875
5.744,-0.0625
5.746,0.1875
5.748,0.5
5.75,-0.625
5.752,-0.375
5.7540000000000004,-0.3125
5.756,-0.4375
5.758,-0.3125
5.76,-0.5625
5.7620000000000005,0.0
5.764,-0.125
5.766,0.0
5.768,-0.8125
5.7700000000000005,0.9375
5.772,0.1875
5.774,-0.25
5.776,-0.1875
5.7780000000000005,-0.375
5.78,-0.75
5.782,0.3125
5.784,-1.125
5.7860000000000005,-1.25
5.788,-0.875
5.79,-0.1875
5.792,-0.375
5.7940000000000005,0.0
5.796,1.4375
5.798,-1.0
5.8,0.0625
5.8020000000000005,-0.1875
5.804,-0.4375
5.806,-0.875
5.808,-0.8125
5.8100000000000005,-0.4375
5.812,-0.75
5.814,-0.9375
5.816,-0.8125
5.8180000000000005,-0.375
5.82,-0.75
5.822,0.5625
5.824,-0.25
5.8260000000000005,0.5
5.828,0.875
5.83,-0.0625
5.832,0.5
5.8340000000000005,-0.0625
5.836,0.0
5.838,-0.25
5.84,-1.25
5.8420000000000005,-1.4375
5.844,-0.0625
5.846,0.0
5.848,-0.25
5.8500000000000005,0.0
5.852,-0.3125
5.854,-0.875
5.856,-0.5
5.8580000000000005,0.5625
5.86,0.3125
5.862,-0.5625
5.864,0.75
5.8660000000000005,0.75
5.868,-0.4375
5.87,-0.5625
5.872,0.6875
5.8740000000000006,0.9375
5.876,-0.375
5.878,-0.5625
5.88,-0.3125
5.882000000000001,-0.25
5.884,0.75
5.886,-0.375
5.888,-0.3125
5.89,0.75
5.892,0.375
5.894,1.0625
5.896,-0.6875
5.898,-0.1875
5.9,1.5625
5.902,-0.875
5.904,-0.8125
5.906,0.4375
5.908,0.625
5.91,0.4375
5.912,0.4375
5.914,-1.125
5.916,-1.25
5.918,-1.4375
5.92,-0.4375
5.922,-1.0625
5.924,-0.3125
5.926,-0.4375
5.928,-0.0625
5.93,-0.5
5.932,-0.125
5.934,-0.0625
5.936,-0.4375
5.938,-0.25
5.94,1.125
5.942,-0.3125
5.944,-0.4375
5.946,-0.625
5.948,-0.8125
5.95,-0.5
5.952,-1.625
5.954,-0.6875
5.956,-0.6875
5.958,-0.25
5.96,-0.625
5.962,-0.625
5.964,-0.5
5.966,-0.3125
5.968,-0.125
5.97,0.4375
5.972,1.0625
5.974,2.1875
5.976,1.8125
5.978,2.6875
5.98,2.75
5.982,1.8125
5.984,2.375
5.986,1.8125
5.988,2.5625
5.99,2.75
5.992,2.5625
5.994,2.0
5.996,3.1875
5.998,3.5
6.0,1.3125
6.002,-0.375
6.0040000000000004,0.5625
6.006,-1.4375
6.008,-0.8125
6.01,0.0
6.0120000000000005,-0.375
6.014,-1.3125
6.016,-2.5
6.018,-0.875
6.0200000000000005,-0.125
6.022,-1.125
6.024,-1.875
6.026,-0.4375
6.0280000000000005,0.0
6.03,-0.375
6.032,-1.8125
6.034,-0.25
6.0360000000000005,0.0625
6.038,-0.625
6.04,-0.5625
6.042,0.125
6.0440000000000005,0.3125
6.046,1.4375
6.048,-0.375
6.05,-1.0625
6.0520000000000005,0.0
6.054,0.6875
6.056,-0.875
6.058,0.3125
6.0600000000000005,0.125
6.062,0.5
6.064,0.1875
6.066,0.125
6.0680000000000005,-0.125
6.07,0.25
6.072,-0.625
6.074,0.125
6.0760000000000005,0.1875
6.078,0.125
6.08,1.0625
6.082,1.5625
6.0840000000000005,0.1875
6.086,-0.4375
6.088,0.0625
6.09,0.0
6.0920000000000005,-1.5
6.094,0.0
6.096,1.75
6.098,1.4375
6.1000000000000005,1.125
6.102,-0.125
6.104,0.1875
6.106,0.5
6.1080000000000005,1.0625
6.11,0.4375
6.112,0.1875
6.114,0.5
6.1160000000000005,0.6875
6.118,1.125
6.12,0.375
6.122,0.3125
6.1240000000000006,0.875
6.126,0.375
6.128,0.625
6.13,0.5625
6.132000000000001,0.0625
6.134,0.75
6.136,1.0
6.138,1.125
6.140000000000001,1.125
6.142,1.0
6.144,1.0
6.146,1.0
6.148,-0.375
6.15,-0.8125
6.152,0.5
6.154,1.6875
6.156,1.5625
6.158,0.3125
6.16,3.1875
6.162,2.5
6.164,0.5625
6.166,1.5
6.168,1.25
6.17,1.0
6.172,1.5
6.174,1.0
6.176,2.0
6.178,1.25
6.18,1.75
6.182,2.5625
6.184,1.625
6.186,3.9375
6.188,3.0625
6.19,2.625
6.192,2.4375
6.194,1.9375
6.196,3.5625
6.198,3.3125
6.2,3.3125
6.202,2.25
6.204,3.4375
6.206,3.4375
6.208,3.8125
6.21,2.3125
6.212,2.9375
6.214,2.75
6.216,3.25
6.218,2.75
6.22,3.5
6.222,2.4375
6.224,3.0625
6.226,2.8125
6.228,2.6875
6.23,3.1875
6.232,3.25
6.234,3.0
6.236,3.125
6.238,4.375
6.24,3.1875
6.242,2.8125
6.244,3.75
6.246,3.5625
6.248,3.125
6.25,3.4375
6.252,1.6875
6.2540000000000004,1.625
6.256,2.125
6.258,1.625
6.26,1.6875
6.2620000000000005,1.75
6.264,1.125
6.266,1.625
6.268,1.25
6.2700000000000005,1.375
6.272,1.875
6.274,2.625
6.276,0.4375
6.2780000000000005,0.625
6.28,0.625
6.282,-0.6875
6.284,0.375
6.2860000000000005,1.625
6.288,-0.9375
6.29,-1.5625
6.292,-0.5625
6.2940000000000005,-0.0625
6.296,-0.9375
6.298,0.0
6.3,-0.8125
6.3020000000000005,-0.3125
6.304,-0.4375
6.306,0.0625
6.308,0.0
6.3100000000000005,-0.0625
6.312,-1.25
6.314,-1.625
6.316,-2.6875
6.3180000000000005,-0.5625
6.32,-1.4375
6.322,-0.1875
6.324,0.125
6.3260000000000005,-0.5
6.328,0.0625
6.33,-0.125
6.332,0.25
6.3340000000000005,-0.75
6.336,-0.5625
6.338,-0.4375
6.34,0.125
6.3420000000000005,-0.5
6.344,-0.9375
6.346,-1.125
6.348,-1.75
6.3500000000000005,0.375
6.352,-0.5
6.354,-0.875
6.356,-1.4375
6.3580000000000005,-1.625
6.36,-1.625
6.362,-0.8125
6.364,-0.625
6.3660000000000005,-1.375
6.368,-0.625
6.37,-0.6875
6.372,0.0625
6.3740000000000006,0.6875
6.376,-0.4375
6.378,-1.0
6.38,-0.3125
6.382000000000001,-0.8125
6.384,-0.6875
6.386,-1.5625
6.388,-2.5625
6.390000000000001,0.25
6.392,-1.4375
6.394,-0.25
6.396,-0.8125
6.398000000000001,-1.625
6.4,-1.0
6.402,-0.5
6.404,-0.4375
6.406,-1.375
6.408,-1.625
6.41,-0.25
6.412,0.375
6.414,-2.3125
6.416,0.125
6.418,-1.75
6.42,1.75
6.422,-1.3125
6.424,-1.3125
6.426,-0.6875
6.428,0.3125
6.43,-0.5625
6.432,-0.9375
6.434,-0.1875
6.436,-0.3125
6.438,0.0
6.44,-1.375
6.442,-1.125
6.444,-0.3125
6.446,0.0
6.448,-0.3125
6.45,-1.5
6.452,-0.4375
6.454,-1.5625
6.456,-0.375
6.458,-0.1875
6.46,-0.9375
6.462,-0.375
6.464,-0.3125
6.466,-0.3125
6.468,-1.9375
6.47,-1.5
6.472,0.1875
6.474,0.125
6.476,-1.5
6.478,-0.625
6.48,-0.0625
6.482,0.0
6.484,-0.25
6.486,-0.875
6.488,0.375
6.49,1.3125
6.492,-0.1875
6.494,-1.1875
6.496,-1.0
6.498,-0.125
6.5,-0.5625
6.502,-0.9375
6.5040000000000004,-0.9375
6.506,-1.625
6.508,-1.4375
6.51,-0.8125
6.5120000000000005,-1.375
6.514,-1.0
6.516,0.375
6.518,1.25
6.5200000000000005,-0.375
6.522,-1.125
6.524,-0.6875
6.526,-0.125
6.5280000000000005,-1.0625
6.53,-1.875
6.532,-1.125
6.534,-0.6875
6.5360000000000005,-0.1875
6.538,-0.125
6.54,-1.5
6.542,-1.5625
6.5440000000000005,0.3125
6.546,0.0625
6.548,-0.75
6.55,0.125
6.5520000000000005,-0.375
6.554,-0.8125
6.556,-1.125
6.558,-1.0
6.5600000000000005,-1.0625
6.562,-0.75
6.564,-1.25
6.566,-1.5625
6.5680000000000005,-1.3125
6.57,1.3125
6.572,-1.875
6.574,0.0625
6.5760000000000005,-0.875
6.578,0.125
6.58,-1.875
6.582,-0.3125
6.5840000000000005,-0.75
6.586,-0.8125
6.588,-1.6875
6.59,0.125
6.5920000000000005,1.1875
6.594,-1.25
6.596,-0.75
6.598,0.125
6.6000000000000005,-1.5
6.602,-1.0
6.604,-0.875
6.606,-2.625
6.6080000000000005,-1.9375
6.61,-0.3125
6.612,-0.0625
6.614,-1.25
6.6160000000000005,-0.375
6.618,0.125
6.62,-0.625
6.622,-1.625
6.6240000000000006,-1.625
6.626,-1.5625
6.628,-1.5625
6.63,-1.125
6.632000000000001,-1.625
6.634,-0.75
6.636,-0.0625
6.638,-0.875
6.640000000000001,-0.75
6.642,0.125
6.644,0.3125
6.646,-1.125
6.648000000000001,-2.4375
6.65,-0.375
6.652,-0.0625
6.654,-0.5625
6.656000000000001,0.375
6.658,-0.6875
6.66,0.8125
6.662,-0.875
6.664,1.0
6.666,-1.125
6.668,0.0625
6.67,-1.5
6.672,-1.6875
6.674,-0.375
6.676,0.25
6.678,0.3125
6.68,-0.625
6.682,-1.6875
6.684,0.3125
6.686,-0.375
6.688,-0.4375
6.69,-0.9375
6.692,0.8125
6.694,-0.625
6.696,-0.8125
6.698,-0.625
6.7,0.125
6.702,0.5
6.704,0.0
6.706,-0.75
6.708,-1.5625
6.71,-0.75
6.712,0.125
6.714,0.625
6.716,-0.625
6.718,-0.625
6.72,-1.0
6.722,-1.4375
6.724,-1.0
6.726,0.0
6.728,-0.375
6.73,-0.75
6.732,-1.1875
6.734,-0.9375
6.736,-1.6875
6.738,-1.25
6.74,-0.4375
6.742,-0.5625
6.744,-1.375
6.746,-2.125
6.748,-0.4375
6.75,-0.25
6.752,-0.9375
6.7540000000000004,-0.4375
6.756,0.4375
6.758,0.8125
6.76,-1.5
6.7620000000000005,-0.875
6.764,-1.0
6.766,-1.3125
6.768,-1.0
6.7700000000000005,-2.5625
6.772,-1.375
6.774,0.9375
6.776,0.25
6.7780000000000005,-0.6875
6.78,2.0
6.782,1.875
6.784,2.0
6.7860000000000005,2.625
6.788,3.3125
6.79,2.25
6.792,1.125
6.7940000000000005,2.0
6.796,2.0625
6.798,1.625
6.8,2.0625
6.8020000000000005,0.5
6.804,-0.0625
6.806,0.5625
6.808,0.5
6.8100000000000005,-1.8125
6.812,-1.75
6.814,-0.5
6.816,-1.125
6.8180000000000005,-1.4375
6.82,-2.25
6.822,-1.25
6.824,-2.25
6.8260000000000005,-1.0625
6.828,-1.75
6.83,-0.375
6.832,0.125
6.8340000000000005,-0.5625
6.836,-0.75
6.838,0.1875
6.84,0.0
6.8420000000000005,0.25
6.844,-0.1875
6.846,-0.1875
6.848,-0.0625
6.8500000000000005,-1.0
6.852,-0.4375
6.854,-0.9375
6.856,0.0
6.8580000000000005,-0.5
6.86,-1.5625
6.862,-0.6875
6.864,0.0625
6.8660000000000005,-0.125
6.868,-0.3125
6.87,-0.6875
6.872,0.5625
6.8740000000000006,-0.3125
6.876,-0.3125
6.878,0.25
6.88,-0.4375
6.882000000000001,-0.4375
6.884,-0.5
6.886,0.125
6.888,0.375
6.890000000000001,-0.6875
6.892,-1.25
6.894,-1.25
6.896,0.4375
6.898000000000001,-0.4375
6.9,-0.9375
6.902,-0.4375
6.904,0.0625
6.906000000000001,0.3125
6.908,0.5
6.91,0.75
6.912,1.375
6.914,0.4375
6.916,0.375
6.918,-0.125
6.92,-0.4375
6.922,-0.125
6.924,-0.875
6.926,-0.0625
6.928,0.1875
6.93,0.1875
6.932,1.3125
6.934,1.5625
6.936,-0.5
6.938,-0.375
6.94,0.3125
6.942,0.375
6.944,0.5625
6.946,0.3125
6.948,2.25
6.95,0.875
6.952,0.5625
6.954,-0.3125
6.956,0.3125
6.958,0.5
6.96,2.6875
6.962,0.5625
6.964,0.625
6.966,0.9375
6.968,-0.125
6.97,1.25
6.972,1.625
6.974,1.625
6.976,1.3125
6.978,1.0625
6.98,1.8125
6.982,1.875
6.984,2.0625
6.986,0.6875
6.988,2.25
6.99,2.4375
6.992,2.0
6.994,2.0
6.996,3.125
6.998,3.125
7.0,1.9375
7.002,2.6875
7.0040000000000004,3.75
7.006,2.125
7.008,0.875
7.01,1.9375
7.0120000000000005,1.625
7.014,2.6875
7.016,2.75
7.018,3.1875
7.0200000000000005,2.0
7.022,3.0
7.024,3.8125
7.026,3.9375
7.0280000000000005,2.5625
7.03,4.1875
7.032,4.0
7.034,1.5625
7.0360000000000005,2.5
7.038,2.25
7.04,1.8125
7.042,3.625
7.0440000000000005,3.0
7.046,2.75
7.048,3.4375
7.05,2.875
7.0520000000000005,2.0
7.054,2.9375
7.056,2.4375
7.058,2.1875
7.0600000000000005,2.5
7.062,2.25
7.064,2.875
7.066,1.6875
7.0680000000000005,1.5625
7.07,2.5
7.072,2.6875
7.074,-0.8125
7.0760000000000005,-0.375
7.078,-0.1875
7.08,-0.25
7.082,0.4375
7.0840000000000005,0.375
7.086,0.375
7.088,-0.0625
7.09,-0.375
7.0920000000000005,0.6875
7.094,-0.5625
7.096,-0.9375
7.098,-0.5625
7.1000000000000005,-0.75
7.102,-0.25
7.104,-1.3125
7.106,-1.25
7.1080000000000005,-1.0
7.11,-0.25
7.112,-1.0
7.114,-1.375
7.1160000000000005,-0.8125
7.118,-0.5
7.12,-0.5625
7.122,-0.5625
7.1240000000000006,-0.5
7.126,-1.0
7.128,-0.9375
7.13,-0.375
7.132000000000001,-1.3125
7.134,-1.5625
7.136,-1.375
7.138,-0.875
7.140000000000001,-0.9375
7.142,-0.875
7.144,-0.3125
7.146,-0.75
7.148000000000001,-1.875
7.15,0.25
7.152,-1.4375
7.154,-1.8125
7.156000000000001,-1.4375
7.158,-0.6875
7.16,-1.4375
7.162,-1.875
7.164000000000001,-0.5
7.166,-0.5625
7.168,-1.375
7.17,-1.3125
7.172,-1.875
7.174,-1.0625
7.176,0.125
7.178,-2.625
7.18,-1.3125
7.182,-0.5
7.184,-0.5625
7.186,-0.5625
7.188,-0.9375
7.19,-1.6875
7.192,-2.3125
7.194,-1.6875
7.196,-1.25
7.198,-0.9375
7.2,-0.125
7.202,-0.9375
7.204,-0.375
7.206,-0.875
7.208,-0.6875
7.21,-0.375
7.212,0.3125
7.214,-0.625
7.216,-1.5
7.218,-0.9375
7.22,-1.75
7.222,-0.0625
7.224,0.0
7.226,-0.5
7.228,-0.6875
7.23,-1.3125
7.232,-1.375
7.234,-1.0
7.236,-0.9375
7.238,-0.8125
7.24,-0.0625
7.242,-1.0
7.244,-0.875
7.246,-0.9375
7.248,-0.1875
7.25,-0.6875
7.252,0.25
7.2540000000000004,-0.5
7.256,-1.5
7.258,-1.5
7.26,-0.5
7.2620000000000005,-1.125
7.264,-1.5625
7.266,-0.5
7.268,-1.1875
7.2700000000000005,-0.875
7.272,-0.75
7.274,-0.8125
7.276,-0.5
7.2780000000000005,-0.3125
7.28,-0.25
7.282,-1.5625
7.284,-0.4375
7.2860000000000005,-0.5625
7.288,-1.375
7.29,0.5
7.292,-1.125
7.2940000000000005,-0.625
7.296,-0.6875
7.298,1.25
7.3,-1.375
7.3020000000000005,-2.375
7.304,-0.6875
7.306,-0.375
7.308,-1.0
7.3100000000000005,-1.5625
7.312,-1.1875
7.314,-1.4375
7.316,-0.0625
7.3180000000000005,0.6875
7.32,-0.5625
7.322,-0.625
7.324,-1.0
7.3260000000000005,-0.6875
7.328,-0.875
7.33,-1.0625
7.332,-0.625
7.3340000000000005,-1.75
7.336,-0.625
7.338,0.5
7.34,-0.0625
7.3420000000000005,-1.125
7.344,-1.5
7.346,-0.9375
7.348,-0.8125
7.3500000000000005,-1.1875
7.352,-1.0
7.354,-0.5
7.356,-0.875
7.3580000000000005,-0.25
7.36,-0.875
7.362,-0.5625
7.364,-1.5
7.3660000000000005,-1.1875
7.368,-0.4375
7.37,-1.3125
7.372,-0.875
7.3740000000000006,-0.9375
7.376,-0.9375
7.378,-1.0625
7.38,-0.5625
7.382000000000001,-1.8125
7.384,-2.1875
7.386,-1.0
7.388,-0.75
7.390000000000001,-0.6875
7.392,-1.5
7.394,1.0625
7.396,-2.0625
7.398000000000001,-1.6875
7.4,-0.4375
7.402,-1.25
7.404,0.4375
7.406000000000001,0.0625
7.408,-0.125
7.41,-1.9375
7.412,-1.25
7.414000000000001,0.375
7.416,-0.3125
7.418,-1.125
7.42,-1.25
7.422000000000001,0.125
7.424,0.5625
7.426,-0.75
7.428,-0.3125
7.43,0.0625
7.432,-0.0625
7.434,0.0625
7.436,-0.4375
7.438,-0.625
7.44,-0.375
7.442,0.1875
7.444,-0.125
7.446,0.25
7.448,-0.3125
7.45,0.75
7.452,0.6875
7.454,1.1875
7.456,-0.4375
7.458,-0.875
7.46,-0.5
7.462,-0.8125
7.464,-1.125
7.466,-0.9375
7.468,-1.875
7.47,-1.1875
7.472,-0.4375
7.474,-0.75
7.476,-1.25
7.478,-1.25
7.48,-0.8125
7.482,-0.125
7.484,0.0625
7.486,-0.9375
7.488,-0.875
7.49,-1.5625
7.492,-1.3125
7.494,0.5625
7.496,-0.1875
7.498,-2.5
7.5,-1.5625
7.502,-2.0625
7.5040000000000004,-1.0
7.506,-1.25
7.508,-0.875
7.51,-0.625
7.5120000000000005,-0.125
7.514,-0.4375
7.516,0.0
7.518,-1.3125
7.5200000000000005,-0.4375
7.522,-0.0625
7.524,-0.3125
7.526,0.125
7.5280000000000005,2.125
7.53,0.8125
7.532,2.375
7.534,2.3125
7.5360000000000005,1.25
7.538,0.4375
7.54,1.4375
7.542,1.875
7.5440000000000005,1.6875
7.546,1.875
7.548,1.6875
7.55,1.1875
7.5520000000000005,0.9375
7.554,2.0
7.556,-0.0625
7.558,-1.125
7.5600000000000005,-1.1875
7.562,-1.8125
7.564,-2.5625
7.566,-2.625
7.5680000000000005,-2.375
7.57,-2.125
7.572,-1.4375
7.574,-1.9375
7.5760000000000005,-2.3125
7.578,-2.0
7.58,-1.3125
7.582,-0.375
7.5840000000000005,0.3125
7.586,0.5
7.588,-0.4375
7.59,-0.375
7.5920000000000005,0.0
7.594,-0.0625
7.596,-0.75
7.598,-1.3125
7.6000000000000005,-0.625
7.602,-0.0625
7.604,0.0
7.606,0.125
7.6080000000000005,-0.25
7.61,-0.625
7.612,0.5
7.614,0.9375
7.6160000000000005,-0.4375
7.618,-1.125
7.62,0.5
7.622,-0.125
7.6240000000000006,0.5625
7.626,0.0
7.628,0.1875
7.63,1.1875
7.632000000000001,0.75
7.634,-0.25
7.636,-0.5625
7.638,-0.75
7.640000000000001,-1.25
7.642,1.1875
7.644,0.1875
7.646,0.25
7.648000000000001,0.0
7.65,1.3125
7.652,0.625
7.654,0.75
7.656000000000001,-0.5
7.658,-1.375
7.66,-0.1875
7.662,1.8125
7.664000000000001,-0.9375
7.666,-0.125
7.668,1.625
7.67,0.5625
7.672000000000001,0.1875
7.674,1.375
7.676,1.0
7.678,1.1875
7.68,1.25
7.682,0.5625
7.684,1.4375
7.686,0.5625
7.688,0.125
7.69,1.375
7.692,1.3125
7.694,1.1875
7.696,0.1875
7.698,0.6875
7.7,0.0
7.702,1.0
7.704,0.875
7.706,2.5
7.708,1.25
7.71,2.0625
7.712,1.75
7.714,2.375
7.716,2.25
7.718,3.1875
7.72,1.625
7.722,0.1875
7.724,0.75
7.726,2.125
7.728,1.5625
7.73,1.8125
7.732,1.8125
7.734,2.0625
7.736,1.6875
7.738,2.25
7.74,3.625
7.742,1.625
7.744,1.3125
7.746,2.3125
7.748,2.0
7.75,2.375
7.752,3.0
7.7540000000000004,3.9375
7.756,2.8125
7.758,2.6875
7.76,2.5
7.7620000000000005,2.25
7.764,3.1875
7.766,3.5
7.768,2.5625
7.7700000000000005,3.9375
7.772,4.375
7.774,3.875
7.776,4.75
7.7780000000000005,3.8125
7.78,2.6875
7.782,4.0
7.784,3.125
7.7860000000000005,2.625
7.788,3.875
7.79,4.125
7.792,3.8125
7.7940000000000005,4.25
7.796,2.625
7.798,2.6875
7.8,2.5
7.8020000000000005,4.4375
7.804,3.1875
7.806,2.4375
7.808,2.75
7.8100000000000005,4.1875
7.812,2.5
7.814,1.375
7.816,1.3125
7.8180000000000005,2.5
7.82,2.6875
7.822,1.9375
7.824,1.125
7.8260000000000005,1.25
7.828,1.5
7.83,0.6875
7.832,0.1875
7.8340000000000005,0.125
7.836,1.1875
7.838,1.4375
7.84,0.5625
7.8420000000000005,0.625
7.844,0.375
7.846,0.75
7.848,0.8125
7.8500000000000005,-0.5625
7.852,0.375
7.854,0.3125
7.856,-0.8125
7.8580000000000005,-1.8125
7.86,0.875
7.862,1.0625
7.864,-0.25
7.8660000000000005,0.625
7.868,0.5
7.87,-0.8125
7.872,-0.25
7.8740000000000006,0.3125
7.876,0.8125
7.878,0.8125
7.88,0.75
7.882000000000001,0.625
7.884,-0.8125
7.886,-0.5
7.888,0.9375
7.890000000000001,-0.125
7.892,0.375
7.894,-0.75
7.896,-0.0625
7.898000000000001,0.0
7.9,-0.25
7.902,0.125
7.904,-0.25
7.906000000000001,-1.0
7.908,0.9375
7.91,-0.1875
7.912,-0.125
7.914000000000001,0.1875
7.916,0.375
7.918,-0.5
7.92,-2.3125
7.922000000000001,-1.625
7.924,1.0
7.926,1.3125
7.928,-0.5625
7.930000000000001,-0.875
7.932,0.4375
7.934,0.3125
7.936,0.125
7.938,0.5
7.94,0.0
7.942,1.0
7.944,0.25
7.946,0.75
7.948,0.9375
7.95,-1.25
7.952,-0.8125
7.954,0.25
7.956,0.25
7.958,0.5
7.96,-0.0625
7.962,0.0
7.964,1.0625
7.966,-1.0
7.968,0.8125
7.97,1.125
7.972,0.25
7.974,-1.0
7.976,1.0625
7.978,1.25
7.98,0.75
7.982,-0.375
7.984,-1.5
7.986,0.875
7.988,0.625
7.99,-0.5625
7.992,0.625
7.994,1.25
7.996,0.75
7.998,-0.0625
8.0,0.6875
8.002,-0.75
8.004,-2.125
8.006,1.8125
8.008000000000001,0.125
8.01,0.6875
8.012,0.8125
8.014,0.75
8.016,-0.25
8.018,0.8125
8.02,1.0625
8.022,1.25
8.024000000000001,-0.5
8.026,0.3125
8.028,0.6875
8.03,1.25
8.032,-0.25
8.034,-1.125
8.036,-0.4375
8.038,-0.5625
8.040000000000001,0.4375
8.042,0.5
8.044,1.3125
8.046,0.375
8.048,1.25
8.05,1.125
8.052,0.625
8.054,0.4375
8.056000000000001,0.0
8.058,-0.3125
8.06,0.5
8.062,1.375
8.064,0.6875
8.066,-0.875
8.068,-2.0
8.07,-0.1875
8.072000000000001,1.0
8.074,1.5625
8.076,1.1875
8.078,0.8125
8.08,0.5
8.082,-0.125
8.084,-1.4375
8.086,-0.75
8.088000000000001,0.75
8.09,0.3125
8.092,1.0
8.094,-0.75
8.096,-2.0625
8.098,1.75
8.1,1.1875
8.102,0.5
8.104000000000001,0.3125
8.106,2.25
8.108,-0.9375
8.11,0.875
8.112,-1.375
8.114,0.3125
8.116,0.4375
8.118,0.6875
8.120000000000001,-0.3125
8.122,0.0
8.124,-0.5
8.126,-0.5
8.128,-0.1875
8.13,1.25
8.132,0.4375
8.134,0.75
8.136000000000001,1.0
8.138,-0.375
8.14,0.375
8.142,-0.0625
8.144,1.1875
8.146,0.75
8.148,0.9375
8.15,1.0
8.152000000000001,1.4375
8.154,0.25
8.156,0.5625
8.158,0.6875
8.16,0.0
8.162,0.5625
8.164,0.875
8.166,0.625
8.168000000000001,1.0625
8.17,0.75
8.172,2.5
8.174,1.0625
8.176,1.0
8.178,2.125
8.18,-0.125
8.182,-0.4375
8.184000000000001,1.5625
8.186,0.6875
8.188,1.25
8.19,-0.1875
8.192,0.3125
8.194,1.9375
8.196,0.75
8.198,0.75
8.2,0.0625
8.202,0.1875
8.204,0.375
8.206,-0.9375
8.208,0.25
8.21,-0.25
8.212,0.5
8.214,-0.0625
8.216,0.8125
8.218,-0.125
8.22,0.625
8.222,0.6875
8.224,-0.375
8.226,0.6875
8.228,0.1875
8.23,0.6875
8.232,1.125
8.234,-0.1875
8.236,0.375
8.238,0.0625
8.24,0.0625
8.242,-0.125
8.244,-0.6875
8.246,-0.8125
8.248,0.5625
8.25,-0.25
8.252,0.125
8.254,-0.25
8.256,1.9375
8.258000000000001,3.0
8.26,1.8125
8.262,2.875
8.264,2.375
8.266,2.625
8.268,3.1875
8.27,2.9375
8.272,2.8125
8.274000000000001,2.75
8.276,2.875
8.278,3.0625
8.28,3.0625
8.282,4.375
8.284,3.25
8.286,2.5625
8.288,1.125
8.290000000000001,0.75
8.292,1.25
8.294,-0.0625
8.296,0.625
8.298,0.6875
8.3,-1.375
8.302,-2.75
8.304,-0.0625
8.306000000000001,-0.625
8.308,0.0625
8.31,-0.125
8.312,0.4375
8.314,1.5625
8.316,0.875
8.318,0.75
8.32,1.4375
8.322000000000001,0.875
8.324,0.625
8.326,1.6875
8.328,1.4375
8.33,0.0625
8.332,-0.5625
8.334,0.5625
8.336,0.4375
8.338000000000001,0.9375
8.34,0.75
8.342,0.4375
8.344,0.3125
8.346,0.25
8.348,0.8125
8.35,0.625
8.352,1.625
8.354000000000001,1.1875
8.356,0.125
8.358,-0.375
8.36,-0.1875
8.362,0.8125
8.364,0.75
8.366,2.0625
8.368,-0.125
8.370000000000001,1.4375
8.372,1.1875
8.374,0.6875
8.376,0.375
8.378,1.5
8.38,0.1875
8.382,1.0
8.384,0.75
8.386000000000001,1.625
8.388,1.125
8.39,1.375
8.392,1.625
8.394,1.125
8.396,1.625
8.398,2.0625
8.4,1.6875
8.402000000000001,1.25
8.404,1.1875
8.406,1.125
8.408,-0.0625
8.41,-0.3125
8.412,2.25
8.414,2.9375
8.416,2.25
8.418000000000001,0.625
8.42,1.8125
8.422,1.875
8.424,0.9375
8.426,1.625
8.428,1.75
8.43,1.125
8.432,1.5
8.434000000000001,1.3125
8.436,1.8125
8.438,2.0
8.44,2.1875
8.442,1.9375
8.444,1.625
8.446,0.4375
8.448,1.6875
8.45,2.5
8.452,-0.125
8.454,0.875
8.456,3.5
8.458,2.5
8.46,0.8125
8.462,1.3125
8.464,3.625
8.466,2.25
8.468,3.5625
8.47,4.9375
8.472,3.0625
8.474,3.0
8.476,3.1875
8.478,2.4375
8.48,2.75
8.482,2.375
8.484,3.375
8.486,3.75
8.488,3.6875
8.49,2.6875
8.492,4.625
8.494,4.9375
8.496,4.4375
8.498,3.9375
8.5,3.125
8.502,3.4375
8.504,3.5625
8.506,3.5
8.508000000000001,3.5625
8.51,3.75
8.512,3.5625
8.514,3.625
8.516,4.4375
8.518,5.1875
8.52,3.25
8.522,3.875
8.524000000000001,4.5
8.526,4.25
8.528,3.0
8.53,3.4375
8.532,2.1875
8.534,4.4375
8.536,3.125
8.538,2.1875
8.540000000000001,3.0625
8.542,0.875
8.544,2.5
8.546,0.875
8.548,1.875
8.55,3.1875
8.552,1.5
8.554,3.1875
8.556000000000001,2.875
8.558,1.5625
8.56,1.625
8.562,1.5
8.564,1.375
8.566,1.5
8.568,0.25
8.57,0.0625
8.572000000000001,1.1875
8.574,0.875
8.576,0.625
8.578,0.5625
8.58,-0.1875
8.582,1.25
8.584,1.75
8.586,-0.0625
8.588000000000001,1.125
8.59,-0.625
8.592,-0.6875
8.594,0.25
8.596,-1.3125
8.598,-0.375
8.6,-0.375
8.602,0.5
8.604000000000001,-0.375
8.606,-0.3125
8.608,0.4375
8.61,-0.5
8.612,-0.4375
8.614,-0.1875
8.616,0.0
8.618,0.125
8.620000000000001,0.3125
8.622,-0.5
8.624,-0.5
8.626,-0.8125
8.628,-1.3125
8.63,-0.5625
8.632,0.0625
8.634,0.8125
8.636000000000001,-0.0625
8.638,-1.0
8.64,-1.0625
8.642,-1.1875
8.644,0.75
8.646,0.3125
8.648,-0.9375
8.65,-0.6875
8.652000000000001,-0.5625
8.654,-0.625
8.656,0.4375
8.658,-0.0625
8.66,0.0
8.662,0.75
8.664,0.5625
8.666,-0.8125
8.668000000000001,-1.4375
8.67,0.375
8.672,-1.25
8.674,-0.5625
8.676,0.375
8.678,0.125
8.68,0.4375
8.682,-0.375
8.684000000000001,0.3125
8.686,-0.1875
8.688,0.625
8.69,0.4375
8.692,-1.75
8.694,0.0625
8.696,1.0625
8.698,-0.6875
8.700000000000001,0.4375
8.702,-0.875
8.704,-0.5
8.706,-0.5
8.708,-0.5
8.71,-0.0625
8.712,-0.375
8.714,-0.1875
8.716,0.3125
8.718,0.0
8.72,-1.125
8.722,0.4375
8.724,-0.5
8.726,-0.6875
8.728,0.4375
8.73,-0.375
8.732,-0.4375
8.734,0.0625
8.736,-0.4375
8.738,-0.5625
8.74,0.5625
8.742,-0.125
8.744,0.0
8.746,-0.1875
8.748,-0.4375
8.75,-0.5
8.752,1.75
8.754,0.3125
8.756,-1.1875
8.758000000000001,-0.1875
8.76,0.5
8.762,0.5
8.764,0.4375
8.766,-0.0625
8.768,0.6875
8.77,-0.125
8.772,-0.3125
8.774000000000001,-0.9375
8.776,-0.625
8.778,-0.25
8.78,-1.375
8.782,0.4375
8.784,0.625
8.786,0.625
8.788,0.0
8.790000000000001,-0.3125
8.792,-0.25
8.794,0.0
8.796,-0.8125
8.798,-1.3125
8.8,2.3125
8.802,-2.0625
8.804,1.6875
8.806000000000001,-0.75
8.808,-0.75
8.81,0.3125
8.812,-0.5
8.814,-0.0625
8.816,0.6875
8.818,-0.375
8.82,-0.25
8.822000000000001,-0.8125
8.824,-0.8125
8.826,-0.0625
8.828,0.3125
8.83,-2.4375
8.832,-0.125
8.834,1.375
8.836,-0.5
8.838000000000001,0.5625
8.84,0.0625
8.842,-0.5625
8.844,-0.875
8.846,-0.3125
8.848,-0.1875
8.85,-1.5
8.852,-0.125
8.854000000000001,0.8125
8.856,-0.5625
8.858,-0.5
8.86,0.5
8.862,-0.0625
8.864,0.3125
8.866,0.3125
8.868,-0.0625
8.870000000000001,0.0625
8.872,-0.3125
8.874,-0.125
8.876,-1.125
8.878,0.25
8.88,-0.75
8.882,0.0625
8.884,0.375
8.886000000000001,-0.6875
8.888,0.75
8.89,-0.3125
8.892,-0.125
8.894,-0.25
8.896,-0.6875
8.898,0.4375
8.9,1.0625
8.902000000000001,1.5625
8.904,0.5
8.906,0.125
8.908,-0.375
8.91,-0.0625
8.912,-1.0625
8.914,-1.6875
8.916,-1.25
8.918000000000001,0.1875
8.92,-0.75
8.922,-0.25
8.924,0.75
8.926,-0.1875
8.928,-0.3125
8.93,0.875
8.932,0.3125
8.934000000000001,0.3125
8.936,-0.125
8.938,-0.25
8.94,0.8125
8.942,0.0
8.944,-0.875
8.946,0.5
8.948,1.25
8.950000000000001,1.1875
8.952,2.125
8.954,0.1875
8.956,0.5625
8.958,-0.4375
8.96,0.5625
8.962,1.125
8.964,-0.5
8.966,0.25
8.968,-0.0625
8.97,0.125
8.972,-0.375
8.974,0.25
8.976,-0.875
8.978,-0.0625
8.98,0.375
8.982,-0.0625
8.984,-0.25
8.986,-0.25
8.988,-0.0625
8.99,-0.8125
8.992,0.0625
8.994,0.3125
8.996,-1.4375
8.998,-0.3125
9.0,-0.375
9.002,0.25
9.004,-0.0625
9.006,-0.1875
9.008000000000001,0.1875
9.01,0.5
9.012,-0.8125
9.014,-0.625
9.016,0.875
9.018,-0.75
9.02,-0.5625
9.022,-0.6875
9.024000000000001,-0.5625
9.026,0.0625
9.028,0.1875
9.03,0.625
9.032,-0.6875
9.034,-0.1875
9.036,3.4375
9.038,3.25
9.040000000000001,3.25
9.042,3.5625
9.044,3.25
9.046,3.0625
9.048,1.875
9.05,2.5625
9.052,2.25
9.054,3.125
9.056000000000001,3.4375
9.058,2.1875
9.06,2.5625
9.062,1.625
9.064,0.0
9.066,0.4375
9.068,-1.25
9.07,-0.8125
9.072000000000001,-0.5625
9.074,-1.125
9.076,-1.375
9.078,-1.8125
9.08,-1.3125
9.082,-0.4375
9.084,-1.4375
9.086,-0.125
9.088000000000001,0.0625
9.09,-0.125
9.092,-0.4375
9.094,0.1875
9.096,0.9375
9.098,0.3125
9.1,0.625
9.102,0.4375
9.104000000000001,-0.3125
9.106,0.4375
9.108,0.3125
9.11,1.0
9.112,0.5
9.114,0.25
9.116,0.3125
9.118,-0.0625
9.120000000000001,0.6875
9.122,-0.5
9.124,0.1875
9.126,0.4375
9.128,0.4375
9.13,0.75
9.132,-0.25
9.134,1.125
9.136000000000001,1.5
9.138,0.5
9.14,1.125
9.142,0.25
9.144,0.1875
9.146,-0.125
9.148,0.0
9.15,-0.375
9.152000000000001,-0.5
9.154,1.9375
9.156,1.1875
9.158,0.5
9.16,0.6875
9.162,1.375
9.164,1.5625
9.166,0.5
9.168000000000001,0.9375
9.17,0.9375
9.172,1.4375
9.174,0.0
9.176,0.0625
9.178,1.625
9.18,1.125
9.182,-0.125
9.184000000000001,0.375
9.186,0.25
9.188,0.8125
9.19,0.5
9.192,1.4375
9.194,0.8125
9.196,0.375
9.198,2.625
9.200000000000001,2.375
9.202,0.5625
9.204,0.5625
9.206,2.6875
9.208,1.75
9.21,1.5
9.212,1.4375
9.214,1.75
9.216000000000001,1.75
9.218,2.25
9.22,1.75
9.222,3.125
9.224,1.5
9.226,2.6875
9.228,2.8125
9.23,1.8125
9.232,1.5625
9.234,2.875
9.236,1.5
9.238,1.8125
9.24,1.9375
9.242,1.5625
9.244,3.625
9.246,2.625
9.248,2.125
9.25,2.0625
9.252,2.5625
9.254,3.1875
9.256,3.625
9.258000000000001,4.0
9.26,2.3125
9.262,4.4375
9.264,4.4375
9.266,2.4375
9.268,2.5
9.27,3.1875
9.272,3.5
9.274000000000001,2.9375
9.276,3.375
9.278,3.75
9.28,3.875
9.282,3.5625
9.284,3.375
9.286,3.5625
9.288,4.0625
9.290000000000001,3.25
9.292,4.375
9.294,3.875
9.296,3.75
9.298,3.25
9.3,3.375
9.302,3.5
9.304,4.125
9.306000000000001,2.9375
9.308,4.0625
9.31,4.4375
9.312,2.75
9.314,2.9375
9.316,2.9375
9.318,3.0625
9.32,3.3125
9.322000000000001,3.125
9.324,2.0625
9.326,0.875
9.328,0.875
9.33,1.625
9.332,1.25
9.334,1.1875
9.336,0.3125
9.338000000000001,0.0
9.34,0.6875
9.342,2.0625
9.344,0.5
9.346,0.0
9.348,0.8125
9.35,0.4375
9.352,0.9375
9.354000000000001,-0.625
9.356,-0.4375
9.358,1.25
9.36,0.25
9.362,0.0
9.364,-0.8125
9.366,-0.1875
9.368,0.375
9.370000000000001,0.3125
9.372,0.0
9.374,-1.5
9.376,-1.1875
9.378,0.6875
9.38,0.6875
9.382,-0.25
9.384,0.6875
9.386000000000001,-0.8125
9.388,1.0625
9.39,-0.4375
9.392,-0.4375
9.394,-0.4375
9.396,-0.1875
9.398,0.3125
9.4,-0.4375
9.402000000000001,-0.875
9.404,-0.25
9.406,-0.6875
9.408,0.375
9.41,0.875
9.412,-1.0
9.414,-0.0625
9.416,-0.75
9.418000000000001,0.3125
9.42,0.75
9.422,-1.125
9.424,-1.625
9.426,0.625
9.428,0.375
9.43,1.4375
9.432,0.3125
9.434000000000001,0.625
9.436,-0.5
9.438,-0.75
9.44,-1.25
9.442,-0.625
9.444,0.125
9.446,0.375
9.448,-0.375
9.450000000000001,-0.875
9.452,-1.0625
9.454,-0.0625
9.456,1.0625
9.458,-0.375
9.46,-0.6875
9.462,0.625
9.464,1.5
9.466000000000001,0.0625
9.468,-0.125
9.47,0.875
9.472,0.75
9.474,-1.5
9.476,-2.5625
9.478,0.0625
9.48,0.9375
9.482,-1.125
9.484,0.375
9.486,0.0625
9.488,0.5625
9.49,0.25
9.492,-0.6875
9.494,0.1875
9.496,0.5625
9.498,0.375
9.5,0.75
9.502,-0.375
9.504,0.1875
9.506,0.5625
9.508000000000001,-0.8125
9.51,1.0
9.512,0.875
9.514,0.125
9.516,0.5625
9.518,0.6875
9.52,1.1875
9.522,-1.1875
9.524000000000001,1.125
9.526,0.25
9.528,0.625
9.53,0.6875
9.532,-0.1875
9.534,-0.1875
9.536,0.75
9.538,-0.9375
9.540000000000001,0.75
9.542,0.5
9.544,0.625
9.546,-0.0625
9.548,0.0625
9.55,-0.5
9.552,-0.5625
9.554,0.0625
9.556000000000001,-0.5
9.558,1.8125
9.56,1.0
9.562,-1.5625
9.564,0.375
9.566,0.0
9.568,-0.4375
9.57,0.4375
9.572000000000001,-0.375
9.574,0.0625
9.576,-0.5
9.578,-1.3125
9.58,-1.0625
9.582,-0.3125
9.584,0.6875
9.586,0.125
9.588000000000001,-0.8125
9.59,-0.75
9.592,0.5625
9.594,2.0
9.596,0.1875
9.598,1.1875
9.6,1.375
9.602,-0.875
9.604000000000001,0.0
9.606,1.375
9.608,0.8125
9.61,2.1875
9.612,0.3125
9.614,0.9375
9.616,0.5625
9.618,0.5625
9.620000000000001,1.0625
9.622,1.0625
9.624,-0.875
9.626,0.25
9.628,0.875
9.63,0.625
9.632,0.3125
9.634,1.0625
9.636000000000001,1.5
9.638,0.625
9.64,-0.4375
9.642,0.4375
9.644,0.0625
9.646,-1.3125
9.648,0.75
9.65,1.0625
9.652000000000001,1.1875
9.654,0.75
9.656,0.1875
9.658,1.3125
9.66,0.0
9.662,-0.8125
9.664,0.6875
9.666,1.25
9.668000000000001,0.625
9.67,1.5
9.672,0.6875
9.674,1.4375
9.676,1.4375
9.678,1.0
9.68,-0.25
9.682,-0.875
9.684000000000001,-0.8125
9.686,0.375
9.688,2.5625
9.69,1.5
9.692,-0.25
9.694,0.1875
9.696,0.3125
9.698,0.9375
9.700000000000001,0.75
9.702,0.8125
9.704,-0.0625
9.706,2.4375
9.708,2.125
9.71,0.0625
9.712,1.1875
9.714,1.5625
9.716000000000001,0.6875
9.718,1.0
9.72,0.75
9.722,0.375
9.724,0.625
9.726,0.4375
9.728,1.4375
9.73,1.125
9.732,0.8125
9.734,1.5
9.736,2.1875
9.738,1.0
9.74,1.375
9.742,1.125
9.744,1.4375
9.746,1.8125
9.748,1.6875
9.75,0.125
9.752,1.75
9.754,1.8125
9.756,1.4375
9.758000000000001,1.625
9.76,1.875
9.762,2.875
9.764,1.75
9.766,1.25
9.768,1.3125
9.77,1.75
9.772,0.1875
9.774000000000001,1.9375
9.776,1.0625
9.778,0.625
9.78,1.75
9.782,1.0
9.784,0.4375
9.786,1.25
9.788,0.0625
9.790000000000001,-0.0625
9.792,-0.1875
9.794,1.625
9.796,3.0
9.798,-0.375
9.8,0.3125
9.802,1.625
9.804,1.4375
9.806000000000001,1.875
9.808,1.125
9.81,0.8125
9.812,-0.25
9.814,0.4375
9.816,1.0625
9.818,0.8125
9.82,0.875
9.822000000000001,0.6875
9.824,1.4375
9.826,0.25
9.828,0.25
9.83,0.5625
9.832,1.0
9.834,1.1875
9.836,0.125
9.838000000000001,0.5
9.84,2.0
9.842,2.5
9.844,2.9375
9.846,3.4375
9.848,5.3125
9.85,5.4375
9.852,2.8125
9.854000000000001,3.9375
9.856,3.75
9.858,4.0625
9.86,3.5
9.862,3.375
9.864,5.25
9.866,5.3125
9.868,6.0
9.870000000000001,3.375
9.872,1.5
9.874,1.1875
9.876,2.375
9.878,-0.4375
9.88,1.625
9.882,1.125
9.884,-0.75
9.886000000000001,-0.0625
9.888,-1.1875
9.89,0.1875
9.892,0.9375
9.894,0.1875
9.896,2.0625
9.898,0.8125
9.9,1.375
9.902000000000001,-0.25
9.904,1.6875
9.906,2.125
9.908,1.125
9.91,1.1875
9.912,1.75
9.914,2.375
9.916,1.1875
9.918000000000001,0.9375
9.92,0.9375
9.922,2.4375
9.924,2.3125
9.926,1.4375
9.928,2.0625
9.93,1.5
9.932,1.375
9.934000000000001,1.5
9.936,1.0625
9.938,1.5
9.94,2.3125
9.942,1.75
9.944,1.4375
9.946,2.25
9.948,1.3125
9.950000000000001,2.3125
9.952,2.75
9.954,2.1875
9.956,2.125
9.958,2.3125
9.96,2.9375
9.962,2.8125
9.964,2.375
9.966000000000001,2.25
9.968,2.3125
9.97,3.0
9.972,2.875
9.974,2.25
9.976,1.0
9.978,2.0625
9.98,1.75
9.982000000000001,2.0625
9.984,4.5625
9.986,1.625
9.988,3.0625
9.99,2.875
9.992,2.4375
9.994,3.25
9.996,2.0625
9.998,3.0
10.0,3.0625
10.002,3.125
10.004,3.4375
10.006,4.0625
10.008000000000001,1.6875
10.01,3.3125
10.012,2.8125
10.014,1.9375
10.016,3.25
10.018,2.9375
10.02,3.375
10.022,3.0
10.024000000000001,2.6875
10.026,3.125
10.028,3.5
10.03,3.8125
10.032,3.6875
10.034,3.75
10.036,3.0625
10.038,3.1875
10.040000000000001,4.3125
10.042,3.6875
10.044,3.625
10.046,4.375
10.048,3.25
10.05,4.5
10.052,4.0
10.054,4.0625
10.056000000000001,4.5625
10.058,4.5
10.06,6.375
10.062,3.75
10.064,5.3125
10.066,5.5625
10.068,5.125
10.07,4.375
10.072000000000001,4.875
10.074,6.4375
10.076,6.0
10.078,5.0
10.08,5.25
10.082,6.0625
10.084,5.6875
10.086,5.0
10.088000000000001,4.3125
10.09,4.875
10.092,4.75
10.094,5.6875
10.096,5.5625
10.098,6.6875
10.1,5.5
10.102,6.6875
10.104000000000001,4.1875
10.106,6.0
10.108,6.0
10.11,5.375
10.112,5.9375
10.114,4.9375
10.116,4.9375
10.118,5.375
10.120000000000001,5.875
10.122,5.0625
10.124,4.375
10.126,3.875
10.128,4.0625
10.13,4.5625
10.132,4.75
10.134,4.1875
10.136000000000001,3.875
10.138,4.1875
10.14,3.875
10.142,4.0625
10.144,4.25
10.146,2.625
10.148,2.5625
10.15,2.75
10.152000000000001,2.6875
10.154,2.3125
10.156,2.25
10.158,2.6875
10.16,1.5625
10.162,1.8125
10.164,2.0625
10.166,3.4375
10.168000000000001,1.6875
10.17,1.625
10.172,3.3125
10.174,0.4375
10.176,0.6875
10.178,0.5625
10.18,3.0
10.182,1.8125
10.184000000000001,1.8125
10.186,1.6875
10.188,1.25
10.19,1.0
10.192,1.625
10.194,1.375
10.196,1.3125
10.198,1.5
10.200000000000001,0.5625
10.202,0.6875
10.204,3.0
10.206,2.0625
10.208,-0.3125
10.21,1.75
10.212,2.25
10.214,0.125
10.216000000000001,1.75
10.218,0.9375
10.22,0.625
10.222,0.625
10.224,1.375
10.226,0.5
10.228,2.0
10.23,1.25
10.232000000000001,1.125
10.234,2.0
10.236,0.5625
10.238,0.8125
10.24,1.0625
10.242,0.6875
10.244,1.0625
10.246,0.8125
10.248,0.75
10.25,0.5625
10.252,1.5625
10.254,1.25
10.256,1.5
10.258000000000001,0.5
10.26,1.5625
10.262,1.6875
10.264,1.8125
10.266,0.75
10.268,1.5625
10.27,0.375
10.272,0.5
10.274000000000001,2.125
10.276,1.5625
10.278,1.5
10.28,1.1875
10.282,0.75
10.284,1.9375
10.286,2.5
10.288,0.6875
10.290000000000001,1.25
10.292,1.1875
10.294,0.875
10.296,-0.0625
10.298,1.25
10.3,1.5625
10.302,0.9375
10.304,1.0625
10.306000000000001,1.1875
10.308,1.5625
10.31,1.875
10.312,0.875
10.314,1.6875
10.316,1.8125
10.318,1.375
10.32,0.625
10.322000000000001,0.5
10.324,0.75
10.326,1.375
10.328,1.9375
10.33,0.9375
10.332,0.9375
10.334,1.375
10.336,1.25
10.338000000000001,1.25
10.34,2.25
10.342,3.0
10.344,0.375
10.346,0.9375
10.348,1.625
10.35,0.625
10.352,-0.3125
10.354000000000001,0.9375
10.356,1.25
10.358,1.4375
10.36,1.9375
10.362,0.625
10.364,0.3125
10.366,2.25
10.368,1.4375
10.370000000000001,0.1875
10.372,1.6875
10.374,0.75
10.376,0.375
10.378,1.9375
10.38,1.875
10.382,-0.25
10.384,-0.0625
10.386000000000001,1.0
10.388,1.625
10.39,1.0
10.392,1.4375
10.394,0.6875
10.396,-0.375
10.398,0.6875
10.4,2.1875
10.402000000000001,1.4375
10.404,1.5
10.406,1.0625
10.408,1.1875
10.41,1.5
10.412,0.1875
10.414,0.25
10.416,1.125
10.418000000000001,1.125
10.42,0.625
10.422,0.625
10.424,0.375
10.426,0.625
10.428,1.875
10.43,-0.3125
10.432,0.1875
10.434000000000001,0.1875
10.436,1.0625
10.438,0.0625
10.44,0.5625
10.442,0.625
10.444,0.1875
10.446,2.3125
10.448,1.875
10.450000000000001,0.75
10.452,-0.0625
10.454,0.9375
10.456,0.125
10.458,1.875
10.46,1.9375
10.462,-0.4375
10.464,0.625
10.466000000000001,1.3125
10.468,-0.25
10.47,0.5625
10.472,0.25
10.474,0.75
10.476,0.75
10.478,1.9375
10.48,1.9375
10.482000000000001,1.25
10.484,1.375
10.486,1.8125
10.488,1.3125
10.49,1.125
10.492,1.0625
10.494,0.875
10.496,1.0625
10.498,0.875
10.5,0.5
10.502,2.1875
10.504,2.0
10.506,0.5
10.508000000000001,2.25
10.51,1.3125
10.512,1.25
10.514,0.8125
10.516,-0.0625
10.518,-2.25
10.52,2.5
10.522,0.625
10.524000000000001,0.3125
10.526,-0.875
10.528,1.25
10.53,0.375
10.532,0.5625
10.534,0.1875
10.536,1.125
10.538,0.9375
10.540000000000001,0.875
10.542,-0.5625
10.544,-0.0625
10.546,-0.125
10.548,0.8125
10.55,-1.0625
10.552,-0.3125
10.554,0.4375
10.556000000000001,0.875
10.558,1.875
10.56,1.4375
10.562,0.5625
10.564,0.0625
10.566,0.5
10.568,1.5
10.57,0.625
10.572000000000001,0.875
10.574,0.8125
10.576,1.625
10.578,3.25
10.58,2.0
10.582,3.875
10.584,3.25
10.586,3.75
10.588000000000001,2.3125
10.59,3.25
10.592,3.1875
10.594,3.25
10.596,3.6875
10.598,4.0625
10.6,3.375
10.602,2.75
10.604000000000001,1.25
10.606,0.375
10.608,0.25
10.61,1.3125
10.612,-1.3125
10.614,0.1875
10.616,-0.1875
10.618,-1.6875
10.620000000000001,-2.3125
10.622,-1.1875
10.624,0.0625
10.626,0.3125
10.628,0.4375
10.63,-0.4375
10.632,0.3125
10.634,0.25
10.636000000000001,1.875
10.638,1.125
10.64,1.25
10.642,0.375
10.644,1.3125
10.646,0.8125
10.648,-0.3125
10.65,1.1875
10.652000000000001,1.0
10.654,1.375
10.656,2.25
10.658,1.25
10.66,0.3125
10.662,0.625
10.664,1.1875
10.666,2.0625
10.668000000000001,0.375
10.67,1.25
10.672,1.3125
10.674,0.875
10.676,1.9375
10.678,0.3125
10.68,1.8125
10.682,2.625
10.684000000000001,2.3125
10.686,1.75
10.688,-0.125
10.69,0.25
10.692,1.5625
10.694,1.25
10.696,1.4375
10.698,0.4375
10.700000000000001,0.0
10.702,1.375
10.704,1.8125
10.706,2.9375
10.708,2.9375
10.71,0.0625
10.712,0.5625
10.714,0.25
10.716000000000001,1.5625
10.718,2.3125
10.72,0.8125
10.722,1.875
10.724,1.5
10.726,1.375
10.728,1.0
10.73,1.625
10.732000000000001,2.25
10.734,0.875
10.736,2.1875
10.738,1.0625
10.74,2.0625
10.742,1.5625
10.744,2.5
10.746,1.75
10.748000000000001,2.0
10.75,1.1875
10.752,2.5625
10.754,3.0625
10.756,2.0
10.758000000000001,2.5
10.76,2.625
10.762,1.375
10.764,2.3125
10.766,2.25
10.768,1.8125
10.77,2.625
10.772,2.375
10.774000000000001,3.9375
10.776,3.125
10.778,1.3125
10.78,3.1875
10.782,2.9375
10.784,3.25
10.786,3.125
10.788,2.9375
10.790000000000001,3.0
10.792,3.0625
10.794,2.9375
10.796,2.375
10.798,2.6875
10.8,4.5625
10.802,3.8125
10.804,4.375
10.806000000000001,3.6875
10.808,3.875
10.81,3.875
10.812,3.875
10.814,4.25
10.816,4.125
10.818,3.25
10.82,4.25
10.822000000000001,4.625
10.824,4.75
10.826,3.125
10.828,3.75
10.83,3.375
10.832,4.1875
10.834,3.625
10.836,4.875
10.838000000000001,4.625
10.84,4.6875
10.842,3.5
10.844,3.4375
10.846,2.75
10.848,3.6875
10.85,3.9375
10.852,5.75
10.854000000000001,3.6875
10.856,3.5625
10.858,3.9375
10.86,3.0
10.862,3.0625
10.864,2.75
10.866,2.75
10.868,2.1875
10.870000000000001,2.8125
10.872,2.4375
10.874,1.25
10.876,2.25
10.878,0.0625
10.88,2.9375
10.882,1.0
10.884,1.3125
10.886000000000001,1.3125
10.888,1.6875
10.89,2.6875
10.892,0.6875
10.894,-0.1875
10.896,0.0625
10.898,0.4375
10.9,0.125
10.902000000000001,1.3125
10.904,0.5625
10.906,1.5
10.908,0.5
10.91,1.125
10.912,0.6875
10.914,0.5625
10.916,-0.5
10.918000000000001,-1.125
10.92,-0.625
10.922,0.0
10.924,0.9375
10.926,2.125
10.928,-1.125
10.93,1.125
10.932,1.375
10.934000000000001,0.375
10.936,0.0625
10.938,1.125
10.94,0.375
10.942,0.4375
10.944,0.0625
10.946,0.3125
10.948,0.0625
10.950000000000001,0.5
10.952,-0.5625
10.954,-0.1875
10.956,0.5
10.958,1.3125
10.96,-0.625
10.962,-1.25
10.964,0.3125
10.966000000000001,0.25
10.968,-0.1875
10.97,0.375
10.972,0.1875
10.974,0.125
10.976,0.0
10.978,0.1875
10.98,0.1875
10.982000000000001,0.0625
10.984,0.25
10.986,0.625
10.988,-0.0625
10.99,0.375
10.992,0.3125
10.994,1.1875
10.996,0.4375
10.998000000000001,-0.1875
11.0,-0.1875
11.002,0.125
11.004,0.5
11.006,-0.25
11.008000000000001,1.4375
11.01,0.0625
11.012,-0.25
11.014,0.5
11.016,0.6875
11.018,0.625
11.02,0.6875
11.022,0.5625
11.024000000000001,0.125
11.026,0.375
11.028,0.5
11.03,0.25
11.032,1.6875
11.034,0.0625
11.036,-0.3125
11.038,1.125
11.040000000000001,0.25
11.042,0.25
11.044,0.8125
11.046,0.3125
11.048,0.75
11.05,-0.1875
11.052,-0.5
11.054,1.125
11.056000000000001,1.0625
11.058,0.125
11.06,0.3125
11.062,-0.5625
11.064,1.125
11.066,1.375
11.068,0.5625
11.07,0.25
11.072000000000001,-0.25
11.074,0.375
11.076,0.125
11.078,0.875
11.08,0.9375
11.082,0.0625
11.084,1.75
11.086,-0.6875
11.088000000000001,-0.5625
11.09,-0.5625
11.092,0.875
11.094,1.25
11.096,0.375
11.098,0.8125
11.1,0.125
11.102,0.125
11.104000000000001,0.4375
11.106,0.125
11.108,0.0
11.11,1.375
11.112,1.5625
11.114,1.375
11.116,-1.0
11.118,0.3125
11.120000000000001,1.5
11.122,0.625
11.124,-0.75
11.126,-0.125
11.128,0.25
11.13,0.4375
11.132,0.1875
11.134,0.5
11.136000000000001,-0.25
11.138,-0.8125
11.14,-0.0625
11.142,-1.125
11.144,-0.6875
11.146,0.6875
11.148,0.6875
11.15,2.3125
11.152000000000001,1.5
11.154,0.5
11.156,1.0
11.158,0.9375
11.16,-0.1875
11.162,1.5
11.164,1.125
11.166,-0.375
11.168000000000001,0.5625
11.17,0.5
11.172,1.125
11.174,0.8125
11.176,1.0625
11.178,-0.375
11.18,1.8125
11.182,1.0
11.184000000000001,1.75
11.186,1.4375
11.188,0.625
11.19,0.875
11.192,0.875
11.194,0.25
11.196,0.0625
11.198,-0.125
11.200000000000001,0.6875
11.202,0.0
11.204,0.5625
11.206,0.4375
11.208,-0.6875
11.21,-0.5
11.212,-0.375
11.214,0.25
11.216000000000001,0.125
11.218,2.125
11.22,0.5625
11.222,0.375
11.224,0.125
11.226,0.1875
11.228,0.0625
11.23,-0.75
11.232000000000001,-0.1875
11.234,-0.0625
11.236,-0.875
11.238,0.8125
11.24,0.0625
11.242,-0.9375
11.244,-0.1875
11.246,0.1875
11.248000000000001,0.6875
11.25,-1.875
11.252,0.5
11.254,0.625
11.256,1.25
11.258000000000001,1.25
11.26,3.125
11.262,1.8125
11.264,2.25
11.266,2.1875
11.268,2.8125
11.27,2.375
11.272,3.5625
11.274000000000001,4.1875
11.276,2.375
11.278,2.0625
11.28,2.5625
11.282,3.4375
11.284,4.375
11.286,3.375
11.288,1.4375
11.290000000000001,1.375
11.292,0.9375
11.294,0.3125
11.296,1.25
11.298,0.8125
11.3,-0.375
11.302,-0.4375
11.304,-2.0625
11.306000000000001,-2.0
11.308,-1.375
11.31,-1.4375
11.312,-0.75
11.314,-0.25
11.316,0.9375
11.318,1.6875
11.32,0.5625
11.322000000000001,0.9375
11.324,0.375
11.326,0.6875
11.328,2.4375
11.33,0.0625
11.332,1.125
11.334,0.6875
11.336,-1.0625
11.338000000000001,-0.6875
11.34,1.1875
11.342,-0.1875
11.344,1.5625
11.346,1.9375
11.348,0.25
11.35,1.0625
11.352,0.9375
11.354000000000001,0.625
11.356,0.4375
11.358,1.3125
11.36,0.875
11.362,0.8125
11.364,0.8125
11.366,0.9375
11.368,0.4375
11.370000000000001,0.5
11.372,0.75
11.374,1.75
11.376,-0.125
11.378,0.5
11.38,0.5625
11.382,-0.375
11.384,0.6875
11.386000000000001,0.9375
11.388,-0.125
11.39,1.0625
11.392,3.75
11.394,0.0
11.396,1.0625
11.398,0.75
11.4,2.0625
11.402000000000001,0.875
11.404,1.25
11.406,2.8125
11.408,2.3125
11.41,1.25
11.412,0.5625
11.414,2.4375
11.416,1.375
11.418000000000001,1.5
11.42,2.0
11.422,1.625
11.424,0.5625
11.426,1.5
11.428,2.0625
11.43,1.8125
11.432,1.0625
11.434000000000001,1.5625
11.436,1.875
11.438,1.4375
11.44,1.3125
11.442,2.875
11.444,0.9375
11.446,1.9375
11.448,1.5
11.450000000000001,2.625
11.452,2.8125
11.454,0.9375
11.456,2.25
11.458,3.3125
11.46,2.125
11.462,2.75
11.464,2.6875
11.466000000000001,1.5625
11.468,3.125
11.47,1.5625
11.472,3.6875
11.474,2.625
11.476,3.375
11.478,2.5625
11.48,1.625
11.482000000000001,1.875
11.484,2.5625
11.486,2.8125
11.488,2.5625
11.49,2.5625
11.492,3.5
11.494,5.3125
11.496,5.3125
11.498000000000001,4.25
11.5,3.1875
11.502,4.1875
11.504,3.9375
11.506,4.0625
11.508000000000001,4.25
11.51,3.9375
11.512,5.125
11.514000000000001,3.0625
11.516,3.8125
11.518,1.5625
11.52,3.875
11.522,3.8125
11.524000000000001,3.625
11.526,5.25
11.528,4.4375
11.53,3.125
11.532,3.5625
11.534,3.875
11.536,3.5
11.538,2.5625
11.540000000000001,3.4375
11.542,4.0625
11.544,3.25
11.546,4.1875
11.548,1.5625
11.55,2.0
11.552,2.125
11.554,1.4375
11.556000000000001,0.75
11.558,-0.125
11.56,0.375
11.562,1.625
11.564,0.9375
11.566,1.5625
11.568,2.0625
11.57,1.375
11.572000000000001,1.5
11.574,0.4375
11.576,0.375
11.578,0.125
11.58,0.3125
11.582,0.0625
11.584,0.625
11.586,0.4375
11.588000000000001,0.125
11.59,-0.8125
11.592,-0.8125
11.594,-0.1875
11.596,-0.0625
11.598,-0.5625
11.6,0.3125
11.602,1.0625
11.604000000000001,1.625
11.606,-0.8125
11.608,-0.125
11.61,-0.3125
11.612,0.4375
11.614,-0.625
11.616,-0.125
11.618,0.3125
11.620000000000001,-0.125
11.622,-0.0625
11.624,0.1875
11.626,-0.25
11.628,-0.625
11.63,-0.1875
11.632,0.25
11.634,-1.4375
11.636000000000001,-0.5
11.638,1.1875
11.64,0.1875
11.642,-0.5625
11.644,-0.3125
11.646,-0.125
11.648,-0.1875
11.65,1.125
11.652000000000001,-0.8125
11.654,-0.5625
11.656,1.0
11.658,0.75
11.66,-1.25
11.662,-1.125
11.664,-0.625
11.666,-0.625
11.668000000000001,1.0625
11.67,-1.0
11.672,0.3125
11.674,0.25
11.676,-0.5625
11.678,0.375
11.68,0.0625
11.682,0.25
11.684000000000001,0.6875
11.686,-1.0625
11.688,-0.0625
11.69,0.1875
11.692,-0.5625
11.694,-0.9375
11.696,0.25
11.698,-1.0625
11.700000000000001,-0.75
11.702,0.5625
11.704,0.8125
11.706,0.75
11.708,0.25
11.71,0.75
11.712,-0.625
11.714,-0.25
11.716000000000001,0.0625
11.718,0.0
11.72,0.5
11.722,0.0
11.724,-1.4375
11.726,0.25
11.728,-0.0625
11.73,0.3125
11.732000000000001,-0.375
11.734,0.0625
11.736,-0.125
11.738,-0.3125
11.74,0.5625
11.742,1.5
11.744,-0.5625
11.746,-0.375
11.748000000000001,-0.9375
11.75,0.25
11.752,0.625
11.754,-0.6875
11.756,1.1875
11.758000000000001,-1.0625
11.76,-0.4375
11.762,-1.8125
11.764000000000001,0.1875
11.766,2.125
11.768,-0.875
11.77,-0.4375
11.772,0.25
11.774000000000001,1.0625
11.776,0.4375
11.778,0.6875
11.78,0.5625
11.782,-0.9375
11.784,-0.6875
11.786,-0.6875
11.788,0.5625
11.790000000000001,-0.5625
11.792,-0.9375
11.794,-1.1875
11.796,-0.0625
11.798,0.0
11.8,-0.1875
11.802,-0.25
11.804,0.125
11.806000000000001,-0.625
11.808,-2.0
11.81,-0.125
11.812,0.9375
11.814,-1.3125
11.816,0.4375
11.818,0.4375
11.82,0.1875
11.822000000000001,0.5
11.824,-0.3125
11.826,1.0625
11.828,-0.375
11.83,-0.125
11.832,-0.3125
11.834,-0.3125
11.836,-0.4375
11.838000000000001,-0.3125
11.84,0.0
11.842,-0.8125
11.844,-0.1875
11.846,-0.4375
11.848,-0.125
11.85,0.0
11.852,-0.75
11.854000000000001,0.625
11.856,0.125
11.858,-2.4375
11.86,-0.5625
11.862,1.0625
11.864,-0.375
11.866,-0.5625
11.868,0.375
11.870000000000001,-0.1875
11.872,-1.25
11.874,0.0
11.876,0.5625
11.878,0.375
11.88,-0.5625
11.882,0.0
11.884,0.25
11.886000000000001,-0.0625
11.888,0.4375
11.89,1.25
11.892,-0.0625
11.894,0.8125
11.896,0.875
11.898,-0.8125
11.9,-0.25
11.902000000000001,0.1875
11.904,0.25
11.906,-0.5625
11.908,-1.0
11.91,0.3125
11.912,0.8125
11.914,-0.6875
11.916,-0.5
11.918000000000001,-0.4375
11.92,-0.25
11.922,0.375
11.924,-0.3125
11.926,0.25
11.928,-0.5
11.93,-0.9375
11.932,-0.5625
11.934000000000001,-0.125
11.936,-0.3125
11.938,-0.75
11.94,-1.6875
11.942,-1.0
11.944,0.375
11.946,-1.3125
11.948,-0.0625
11.950000000000001,-0.875
11.952,-1.8125
11.954,-1.5
11.956,-0.3125
11.958,-0.3125
11.96,0.875
11.962,0.375
11.964,-0.5625
11.966000000000001,0.25
11.968,0.75
11.97,-0.375
11.972,0.3125
11.974,1.4375
11.976,2.0625
11.978,2.3125
11.98,2.3125
11.982000000000001,3.1875
11.984,2.5625
11.986,2.1875
11.988,2.1875
11.99,1.75
11.992,2.25
11.994,2.5625
11.996,2.625
11.998000000000001,1.375
12.0,0.75
12.002,-1.125
12.004,-1.3125
12.006,-0.125
12.008000000000001,1.4375
12.01,0.5625
12.012,-1.3125
12.014000000000001,-0.875
12.016,-1.625
12.018,-1.875
12.02,-1.5
12.022,-1.375
12.024000000000001,-1.3125
12.026,-0.625
12.028,-0.4375
12.030000000000001,-0.4375
12.032,-1.3125
12.034,-0.6875
12.036,-1.3125
12.038,-0.375
12.040000000000001,-0.1875
12.042,0.0
12.044,-1.0
12.046,-0.25
12.048,1.8125
12.05,0.9375
12.052,-0.6875
12.054,-0.5625
12.056000000000001,0.3125
12.058,0.0
12.06,1.0
12.062,0.5
12.064,0.6875
12.066,0.0
12.068,0.4375
12.07,0.0
12.072000000000001,-0.3125
12.074,0.125
12.076,-0.8125
12.078,-1.6875
12.08,-0.3125
12.082,2.5625
12.084,1.625
12.086,0.8125
12.088000000000001,-0.75
12.09,-0.25
12.092,0.0625
12.094,-0.4375
12.096,-1.25
12.098,-0.375
12.1,0.8125
12.102,-0.9375
12.104000000000001,0.625
12.106,-0.9375
12.108,0.125
12.11,0.6875
12.112,1.125
12.114,0.75
12.116,-0.9375
12.118,0.1875
12.120000000000001,0.0625
12.122,2.375
12.124,-0.9375
12.126,-0.125
12.128,0.875
12.13,0.9375
12.132,0.4375
12.134,0.1875
12.136000000000001,-0.125
12.138,1.1875
12.14,0.125
12.142,1.5625
12.144,1.125
12.146,0.875
12.148,1.3125
12.15,1.125
12.152000000000001,1.0
12.154,1.0
12.156,1.25
12.158,0.75
12.16,1.0625
12.162,1.375
12.164,0.9375
12.166,1.5625
12.168000000000001,2.3125
12.17,1.5
12.172,1.0
12.174,1.0
12.176,1.9375
12.178,1.75
12.18,1.25
12.182,2.3125
12.184000000000001,1.75
12.186,2.0625
12.188,2.0625
12.19,2.1875
12.192,2.4375
12.194,2.125
12.196,1.1875
12.198,2.625
12.200000000000001,2.75
12.202,1.4375
12.204,2.3125
12.206,2.5625
12.208,3.1875
12.21,3.5
12.212,4.0
12.214,1.625
12.216000000000001,1.625
12.218,3.3125
12.22,3.75
12.222,2.4375
12.224,2.8125
12.226,4.375
12.228,2.0
12.23,2.0625
12.232000000000001,2.625
12.234,4.0
12.236,2.375
12.238,1.6875
12.24,4.0
12.242,2.0
12.244,1.5625
12.246,2.4375
12.248000000000001,2.5
12.25,2.4375
12.252,2.75
12.254,1.5
12.256,1.0625
12.258000000000001,1.375
12.26,1.5
12.262,2.5625
12.264000000000001,1.9375
12.266,0.9375
12.268,0.6875
12.27,0.8125
12.272,1.25
12.274000000000001,0.375
12.276,-0.125
12.278,0.75
12.280000000000001,0.875
12.282,0.375
12.284,-2.0625
12.286,-1.3125
12.288,-0.3125
12.290000000000001,-0.125
12.292,-0.4375
12.294,-0.5625
12.296,-0.9375
12.298,-1.4375
12.3,-0.25
12.302,-1.625
12.304,-1.625
12.306000000000001,-1.625
12.308,-0.4375
12.31,-0.75
12.312,-0.8125
12.314,-0.5
12.316,-1.1875
12.318,-1.375
12.32,-1.375
12.322000000000001,0.125
12.324,0.1875
12.326,0.5
12.328,-1.5625
12.33,-1.5625
12.332,-1.125
12.334,-2.75
12.336,-0.625
12.338000000000001,-1.5
12.34,-0.9375
12.342,-1.125
12.344,-1.5
12.346,-1.1875
12.348,-0.875
12.35,-0.3125
12.352,-1.0625
12.354000000000001,-1.6875
12.356,-1.6875
12.358,-1.5625
12.36,-0.75
12.362,-1.1875
12.364,-0.625
12.366,-1.125
12.368,-1.875
12.370000000000001,-0.75
12.372,-1.0
12.374,-1.25
12.376,-0.625
12.378,-1.1875
12.38,-1.75
12.382,-1.75
12.384,-1.0625
12.386000000000001,0.25
12.388,-1.25
12.39,-1.0
12.392,-1.4375
12.394,-1.6875
12.396,-1.1875
12.398,-0.9375
12.4,-0.75
12.402000000000001,-0.875
12.404,-0.375
12.406,-0.875
12.408,-1.9375
12.41,0.5
12.412,-0.0625
12.414,-2.3125
12.416,-1.3125
12.418000000000001,-2.375
12.42,-1.125
12.422,-1.125
12.424,0.0
12.426,-0.875
12.428,-0.875
12.43,-0.0625
12.432,-0.625
12.434000000000001,0.125
12.436,0.375
12.438,-1.5
12.44,-1.3125
12.442,-2.0625
12.444,-2.625
12.446,-0.8125
12.448,-1.1875
12.450000000000001,0.125
12.452,-0.75
12.454,-0.8125
12.456,-1.5625
12.458,-0.5
12.46,-1.1875
12.462,-2.125
12.464,-0.75
12.466000000000001,-0.9375
12.468,-0.4375
12.47,-1.125
12.472,-1.25
12.474,-1.875
12.476,-0.8125
12.478,-0.75
12.48,-1.4375
12.482000000000001,-1.625
12.484,-1.875
12.486,0.625
12.488,-1.6875
12.49,-1.9375
12.492,-1.4375
12.494,-1.3125
12.496,-0.875
12.498000000000001,-1.25
12.5,-0.9375
12.502,-0.25
12.504,-0.1875
12.506,-1.625
12.508000000000001,-2.375
12.51,-1.3125
12.512,0.0625
12.514000000000001,-1.5
12.516,-1.0
12.518,-0.6875
12.52,-1.0625
12.522,-0.75
12.524000000000001,-0.8125
12.526,-1.1875
12.528,-0.875
12.530000000000001,-1.625
12.532,-1.6875
12.534,-0.875
12.536,-1.5625
12.538,-1.5625
12.540000000000001,-1.125
12.542,-1.375
12.544,-1.8125
12.546,-1.5
12.548,-1.25
12.55,-0.875
12.552,-1.75
12.554,-1.1875
12.556000000000001,-1.625
12.558,-1.9375
12.56,-1.4375
12.562,-1.0625
12.564,-1.25
12.566,-1.9375
12.568,-1.1875
12.57,-1.0625
12.572000000000001,-0.875
12.574,-1.9375
12.576,-1.0625
12.578,-1.8125
12.58,-0.375
12.582,-0.9375
12.584,-1.25
12.586,-2.0
12.588000000000001,-1.1875
12.59,-1.3125
12.592,-2.5625
12.594,-1.125
12.596,-1.5
12.598,-1.3125
12.6,-0.375
12.602,-1.25
12.604000000000001,-1.9375
12.606,-2.0625
12.608,-2.1875
12.61,-1.875
12.612,-0.75
12.614,-1.5
12.616,0.5625
12.618,-0.75
12.620000000000001,-0.5
12.622,0.125
12.624,-0.9375
12.626,-0.4375
12.628,-0.25
12.63,0.125
12.632,0.3125
12.634,-1.25
12.636000000000001,-2.4375
12.638,-2.1875
12.64,-0.375
12.642,-0.0625
12.644,-0.6875
12.646,-1.0
12.648,-0.0625
12.65,-2.3125
12.652000000000001,-1.875
12.654,-0.5
12.656,-2.8125
12.658,-2.0625
12.66,-1.75
12.662,-2.6875
12.664,-0.6875
12.666,-1.0625
12.668000000000001,-2.25
12.67,-2.0
12.672,-1.0625
12.674,-1.5625
12.676,-1.375
12.678,-0.75
12.68,-3.0
12.682,-1.4375
12.684000000000001,-2.0
12.686,-0.875
12.688,-1.125
12.69,-1.8125
12.692,-1.25
12.694,-1.5625
12.696,-2.5
12.698,-1.375
12.700000000000001,-1.3125
12.702,-0.6875
12.704,-1.125
12.706,-2.375
12.708,-1.8125
12.71,-1.4375
12.712,-0.25
12.714,0.5625
12.716000000000001,1.125
12.718,1.875
12.72,2.4375
12.722,1.125
12.724,1.8125
12.726,2.25
12.728,2.3125
12.73,0.8125
12.732000000000001,1.0625
12.734,2.0625
12.736,0.5
12.738,0.25
12.74,-1.25
12.742,-2.3125
12.744,0.125
12.746,-0.25
12.748000000000001,-0.5625
12.75,-1.625
12.752,-2.875
12.754,-2.6875
12.756,-2.4375
12.758000000000001,-2.75
12.76,-3.1875
12.762,-2.125
12.764000000000001,-1.0625
12.766,-1.3125
12.768,-3.4375
12.77,-0.1875
12.772,-0.75
12.774000000000001,-1.875
12.776,-2.75
12.778,-0.6875
12.780000000000001,-1.5625
12.782,-1.125
12.784,0.3125
12.786,-0.1875
12.788,-1.0625
12.790000000000001,-2.4375
12.792,-0.75
12.794,-1.0
12.796000000000001,-1.5
12.798,-1.75
12.8,-1.375
12.802,-1.1875
12.804,-0.6875
12.806000000000001,-0.5
12.808,-1.3125
12.81,-0.75
12.812,-0.9375
12.814,-1.1875
12.816,-0.0625
12.818,-0.8125
12.82,-1.3125
12.822000000000001,-1.3125
12.824,-1.625
12.826,-1.25
12.828,-0.5625
12.83,-0.625
12.832,-0.125
12.834,-0.1875
12.836,-0.625
12.838000000000001,-0.3125
12.84,-0.6875
12.842,0.0625
12.844,-0.125
12.846,-1.6875
12.848,-0.125
12.85,1.9375
12.852,-1.625
12.854000000000001,-0.625
12.856,-1.125
12.858,0.5625
12.86,-0.75
12.862,-0.6875
12.864,-0.4375
12.866,-1.9375
12.868,-0.25
12.870000000000001,-0.1875
12.872,1.125
12.874,0.125
12.876,-0.5
12.878,-0.9375
12.88,-0.1875
12.882,-0.25
12.884,-0.3125
12.886000000000001,0.0
12.888,0.625
12.89,0.125
12.892,0.8125
12.894,-0.5
12.896,-0.5
12.898,0.25
12.9,-0.1875
12.902000000000001,0.0
12.904,0.9375
12.906,1.0625
12.908,1.4375
12.91,-0.125
12.912,-0.6875
12.914,0.875
12.916,0.875
12.918000000000001,0.8125
12.92,1.3125
12.922,1.25
12.924,1.4375
12.926,1.4375
12.928,1.9375
12.93,2.3125
12.932,1.375
12.934000000000001,0.6875
12.936,0.75
12.938,1.3125
12.94,0.875
12.942,2.1875
12.944,1.625
12.946,0.75
12.948,0.625
12.950000000000001,2.25
12.952,2.25
12.954,3.5
12.956,2.8125
12.958,2.875
12.96,3.6875
12.962,0.625
12.964,1.875
12.966000000000001,2.6875
12.968,1.125
12.97,2.0
12.972,1.75
12.974,1.625
12.976,2.125
12.978,2.0
12.98,1.5
12.982000000000001,2.125
12.984,1.5
12.986,0.6875
12.988,0.6875
12.99,1.375
12.992,2.5
12.994,2.0625
12.996,0.875
12.998000000000001,0.8125
13.0,0.75
13.002,0.6875
13.004,0.375
13.006,0.125
13.008000000000001,0.5
13.01,0.9375
13.012,0.375
13.014000000000001,-0.875
13.016,-1.4375
13.018,0.375
13.02,-1.4375
13.022,-1.0625
13.024000000000001,-0.6875
13.026,-0.875
13.028,-1.125
13.030000000000001,-1.875
13.032,-2.0
13.034,-1.625
13.036,-0.375
13.038,-1.25
13.040000000000001,-1.0625
13.042,-0.625
13.044,-2.0
13.046000000000001,-2.25
13.048,-1.5625
13.05,-1.1875
13.052,-1.8125
13.054,-2.1875
13.056000000000001,-1.6875
13.058,-2.9375
13.06,-0.625
13.062,-1.5
13.064,-1.9375
13.066,-0.5
13.068,-0.25
13.07,-3.5625
13.072000000000001,-1.75
13.074,-1.6875
13.076,-1.3125
13.078,-2.1875
13.08,-1.875
13.082,-1.75
13.084,-2.375
13.086,-2.8125
13.088000000000001,-1.75
13.09,-2.4375
13.092,-2.1875
13.094,-1.875
13.096,-1.6875
13.098,-1.5
13.1,-2.5
13.102,-1.0625
13.104000000000001,-0.875
13.106,-2.25
13.108,-2.0625
13.11,-1.9375
13.112,-1.8125
13.114,-1.8125
13.116,-1.0625
13.118,-1.3125
13.120000000000001,-2.6875
13.122,-2.0625
13.124,-1.75
13.126,-1.375
13.128,-1.6875
13.13,-0.75
13.132,-1.25
13.134,-1.8125
13.136000000000001,-2.9375
13.138,-3.25
13.14,-2.375
13.142,-0.6875
13.144,-2.5625
13.146,-1.3125
13.148,-0.8125
13.15,-0.9375
13.152000000000001,-1.875
13.154,-2.1875
13.156,-2.375
13.158,-1.5625
13.16,-2.625
13.162,-1.125
13.164,-2.1875
13.166,-1.9375
13.168000000000001,-2.0
13.17,-0.5625
13.172,-1.6875
13.174,-2.5
13.176,-0.6875
13.178,-1.9375
13.18,-1.0625
13.182,-0.6875
13.184000000000001,-1.3125
13.186,-2.0625
13.188,-1.5625
13.19,-1.1875
13.192,-2.75
13.194,-2.25
13.196,-1.375
13.198,-1.5
13.200000000000001,-1.625
13.202,-1.5
13.204,-1.5625
13.206,-1.75
13.208,-2.0625
13.21,-1.8125
13.212,-1.6875
13.214,-2.1875
13.216000000000001,-1.375
13.218,-0.9375
13.22,-1.1875
13.222,-2.6875
13.224,-1.75
13.226,-1.5625
13.228,-1.9375
13.23,-2.25
13.232000000000001,-2.25
13.234,-2.375
13.236,-1.6875
13.238,-1.0
13.24,-0.375
13.242,-1.4375
13.244,-2.875
13.246,-1.9375
13.248000000000001,-2.3125
13.25,-2.0625
13.252,-2.75
13.254,-3.1875
13.256,-2.1875
13.258000000000001,-0.5625
13.26,-1.625
13.262,-1.4375
13.264000000000001,-2.125
13.266,-1.875
13.268,-1.5625
13.27,-1.125
13.272,-1.875
13.274000000000001,-2.0625
13.276,-1.9375
13.278,-2.0
13.280000000000001,-1.6875
13.282,-2.4375
13.284,-2.5625
13.286,-1.125
13.288,-1.125
13.290000000000001,-0.9375
13.292,-0.4375
13.294,-1.75
13.296000000000001,-2.8125
13.298,-2.5
13.3,-2.0
13.302,-2.75
13.304,-2.25
13.306000000000001,-1.6875
13.308,-1.375
13.31,-2.9375
13.312000000000001,-3.5
13.314,-3.0625
13.316,-0.9375
13.318,-1.5
13.32,-1.125
13.322000000000001,-1.4375
13.324,-1.5625
13.326,-2.375
13.328,-1.25
13.33,-2.4375
13.332,-2.4375
13.334,-2.375
13.336,-1.875
13.338000000000001,-1.5625
13.34,-1.625
13.342,-1.375
13.344,-0.875
13.346,-0.875
13.348,-1.125
13.35,-0.875
13.352,-1.4375
13.354000000000001,-1.25
13.356,-1.375
13.358,-2.0
13.36,-0.8125
13.362,-1.1875
13.364,-2.5
13.366,-1.5
13.368,-1.6875
13.370000000000001,-1.875
13.372,-2.3125
13.374,-3.1875
13.376,-1.125
13.378,-1.875
13.38,-1.6875
13.382,-1.75
13.384,-1.625
13.386000000000001,-2.375
13.388,-2.25
13.39,-2.1875
13.392,-3.0625
13.394,-2.5
13.396,-2.75
13.398,-2.9375
13.4,-2.8125
13.402000000000001,-1.875
13.404,-1.75
13.406,-2.25
13.408,-3.125
13.41,-3.0
13.412,-2.0625
13.414,-1.9375
13.416,-3.25
13.418000000000001,-2.3125
13.42,-1.8125
13.422,-1.375
13.424,-1.5625
13.426,-1.9375
13.428,-2.375
13.43,-2.375
13.432,-1.25
13.434000000000001,-2.4375
13.436,-1.0625
13.438,0.3125
13.44,0.4375
13.442,2.6875
13.444,0.6875
13.446,-1.0
13.448,-0.4375
13.450000000000001,-0.4375
13.452,-0.875
13.454,0.0625
13.456,0.6875
13.458,1.9375
13.46,0.75
13.462,-0.375
13.464,-2.125
13.466000000000001,-1.625
13.468,-2.4375
13.47,-3.625
13.472,-4.125
13.474,-3.0625
13.476,-4.75
13.478,-3.8125
13.48,-2.625
13.482000000000001,-2.5
13.484,-3.375
13.486,-2.875
13.488,-3.4375
13.49,-2.0625
13.492,-2.4375
13.494,-2.6875
13.496,-2.1875
13.498000000000001,-0.625
13.5,-1.625
13.502,-2.625
13.504,-3.25
13.506,-2.1875
13.508000000000001,-1.5625
13.51,-2.5625
13.512,-1.0
13.514000000000001,-2.1875
13.516,-0.4375
13.518,-1.8125
13.52,-1.375
13.522,-1.6875
13.524000000000001,-1.5
13.526,-1.5
13.528,-2.4375
13.530000000000001,-1.1875
13.532,-1.3125
13.534,-2.375
13.536,-2.4375
13.538,-2.625
13.540000000000001,-1.0625
13.542,-1.4375
13.544,-3.0625
13.546000000000001,-1.5
13.548,-1.0625
13.55,-1.0625
13.552,-2.5625
13.554,-1.6875
13.556000000000001,-1.375
13.558,-1.25
13.56,-1.8125
13.562000000000001,-0.375
13.564,-2.1875
13.566,-1.6875
13.568,-0.3125
13.57,-1.5
13.572000000000001,-2.25
13.574,-2.5625
13.576,-0.5625
13.578,-1.5
13.58,-1.6875
13.582,-0.375
13.584,-0.5
13.586,-1.375
13.588000000000001,-1.25
13.59,-0.8125
13.592,-1.5625
13.594,-1.75
13.596,-1.125
13.598,-1.875
13.6,-1.9375
13.602,-0.3125
13.604000000000001,-1.375
13.606,-0.4375
13.608,-0.4375
13.61,-0.9375
13.612,-1.75
13.614,-0.5
13.616,-0.9375
13.618,-0.5625
13.620000000000001,-0.25
13.622,-0.5625
13.624,-0.375
13.626,-0.5625
13.628,-0.3125
13.63,-0.25
13.632,0.8125
13.634,0.0625
13.636000000000001,-0.9375
13.638,-1.0
13.64,-0.5625
13.642,-0.1875
13.644,-0.5625
13.646,-1.0
13.648,-0.1875
13.65,0.125
13.652000000000001,0.625
13.654,2.25
13.656,2.0625
13.658,0.4375
13.66,-0.3125
13.662,0.625
13.664,1.375
13.666,0.3125
13.668000000000001,1.1875
13.67,1.625
13.672,2.0
13.674,2.8125
13.676,0.125
13.678,0.6875
13.68,0.8125
13.682,1.3125
13.684000000000001,0.75
13.686,0.3125
13.688,2.1875
13.69,1.5
13.692,1.125
13.694,0.6875
13.696,1.125
13.698,1.6875
13.700000000000001,2.25
13.702,2.0
13.704,0.5625
13.706,1.4375
13.708,0.8125
13.71,0.5625
13.712,0.0625
13.714,1.25
13.716000000000001,-0.125
13.718,-0.0625
13.72,-0.625
13.722,-0.125
13.724,-0.1875
13.726,-0.6875
13.728,-1.5625
13.73,-1.75
13.732000000000001,0.9375
13.734,-0.4375
13.736,-0.4375
13.738,0.125
13.74,-3.0
13.742,-2.625
13.744,0.125
13.746,-0.25
13.748000000000001,-1.5625
13.75,-2.4375
13.752,-2.0625
13.754,-1.8125
13.756,-2.125
13.758000000000001,-1.75
13.76,0.25
13.762,-2.1875
13.764000000000001,-2.6875
13.766,-3.3125
13.768,-3.1875
13.77,-2.75
13.772,-1.8125
13.774000000000001,-2.125
13.776,-1.625
13.778,-1.75
13.780000000000001,-2.25
13.782,-2.4375
13.784,-2.8125
13.786,-2.75
13.788,-2.4375
13.790000000000001,-2.6875
13.792,-3.5
13.794,-2.5625
13.796000000000001,-3.0
13.798,-1.875
13.8,-1.6875
13.802,-1.8125
13.804,-1.9375
13.806000000000001,-1.875
13.808,-2.5
13.81,-3.0625
13.812000000000001,-3.3125
13.814,-4.4375
13.816,-2.625
13.818,-2.125
13.82,-2.625
13.822000000000001,-3.125
13.824,-1.5625
13.826,-3.4375
13.828,-3.875
13.83,-0.625
13.832,-0.8125
13.834,-1.5625
13.836,-2.8125
13.838000000000001,-1.625
13.84,-0.8125
13.842,-5.25
13.844,-2.875
13.846,-3.0625
13.848,-2.4375
13.85,-2.75
13.852,-1.875
13.854000000000001,-2.5
13.856,-3.125
13.858,-0.625
13.86,-2.25
13.862,-2.8125
13.864,-2.4375
13.866,-3.125
13.868,-2.9375
13.870000000000001,-2.75
13.872,-1.9375
13.874,-1.0
13.876,-2.8125
13.878,-1.5
13.88,-3.125
13.882,-3.375
13.884,-1.8125
13.886000000000001,-2.4375
13.888,-1.8125
13.89,-1.75
13.892,-2.375
13.894,-2.1875
13.896,-1.875
13.898,-1.375
13.9,-1.25
13.902000000000001,-2.3125
13.904,-1.9375
13.906,-1.625
13.908,-3.375
13.91,-2.5625
13.912,-3.0
13.914,-2.875
13.916,-2.875
13.918000000000001,-2.1875
13.92,-1.125
13.922,-3.4375
13.924,-2.0625
13.926,-1.3125
13.928,-3.125
13.93,-2.25
13.932,-3.4375
13.934000000000001,-3.0625
13.936,-1.0
13.938,-1.6875
13.94,-3.875
13.942,-3.25
13.944,-2.6875
13.946,-3.0
13.948,-3.375
13.950000000000001,-3.125
13.952,-1.75
13.954,-1.625
13.956,-1.5
13.958,-2.0625
13.96,-2.4375
13.962,-2.125
13.964,-2.4375
13.966000000000001,-1.4375
13.968,-1.6875
13.97,-3.5
13.972,-2.3125
13.974,-2.875
13.976,-2.0
13.978,-1.75
13.98,-2.0625
13.982000000000001,-3.0
13.984,-2.4375
13.986,-2.375
13.988,-3.75
13.99,-2.5625
13.992,-2.4375
13.994,-2.8125
13.996,-3.875
13.998000000000001,-2.375
14.0,-2.0
14.002,-2.625
14.004,-3.5625
14.006,-3.125
14.008000000000001,-1.5
14.01,-2.75
14.012,-2.0625
14.014000000000001,-1.6875
14.016,-3.375
14.018,-2.0625
14.02,-2.3125
14.022,-2.8125
14.024000000000001,-2.6875
14.026,-2.375
14.028,-2.625
14.030000000000001,-2.4375
14.032,-2.25
14.034,-2.8125
14.036,-3.375
14.038,-2.0625
14.040000000000001,-2.4375
14.042,-3.75
14.044,-3.25
14.046000000000001,-1.8125
14.048,-1.6875
14.05,-2.0
14.052,-1.3125
14.054,-3.625
14.056000000000001,-2.9375
14.058,-2.6875
14.06,-2.6875
14.062000000000001,-2.8125
14.064,-2.625
14.066,-2.3125
14.068,-3.625
14.07,-2.9375
14.072000000000001,-1.8125
14.074,-2.0
14.076,-1.875
14.078000000000001,-3.4375
14.08,-1.625
14.082,-1.3125
14.084,-2.625
14.086,-1.25
14.088000000000001,-2.8125
14.09,-1.625
14.092,-1.5
14.094,-2.1875
14.096,-1.5
14.098,-2.375
14.1,-2.4375
14.102,-3.0625
14.104000000000001,-2.625
14.106,-1.8125
14.108,-0.875
14.11,-2.9375
14.112,-1.4375
14.114,-1.375
14.116,-3.3125
14.118,-3.0625
14.120000000000001,-4.1875
14.122,-3.0625
14.124,-2.1875
14.126,-2.0625
14.128,-1.625
14.13,-2.0
14.132,-1.75
14.134,-2.875
14.136000000000001,-3.6875
14.138,-2.5625
14.14,-2.875
14.142,-3.9375
14.144,-3.5
14.146,-2.1875
14.148,-2.25
14.15,-2.9375
14.152000000000001,-3.8125
14.154,-3.5625
14.156,-2.3125
14.158,-1.75
14.16,-3.25
14.162,-2.8125
14.164,-2.6875
14.166,-2.875
14.168000000000001,-2.4375
14.17,-3.0
14.172,-1.9375
14.174,-2.0
14.176,-0.875
14.178,1.5625
14.18,-0.375
14.182,0.875
14.184000000000001,0.0
14.186,-0.5625
14.188,0.0625
14.19,0.0625
14.192,0.3125
14.194,0.375
14.196,0.1875
14.198,0.125
14.200000000000001,-0.0625
14.202,-1.375
14.204,-1.8125
14.206,-1.75
14.208,-2.0625
14.21,-4.125
14.212,-2.1875
14.214,-2.5
14.216000000000001,-3.125
14.218,-4.125
14.22,-3.625
14.222,-4.25
14.224,-3.5625
14.226,-3.0
14.228,-2.5625
14.23,-2.6875
14.232000000000001,-2.75
14.234,-1.875
14.236,-2.1875
14.238,-2.9375
14.24,-2.125
14.242,-2.125
14.244,-2.625
14.246,-2.6875
14.248000000000001,-1.625
14.25,-1.75
14.252,-2.75
14.254,-2.5625
14.256,-2.125
14.258000000000001,-2.5625
14.26,-1.875
14.262,-2.625
14.264000000000001,-1.9375
14.266,-1.5
14.268,-3.1875
14.27,-1.6875
14.272,-1.875
14.274000000000001,-2.125
14.276,-1.875
14.278,-2.125
14.280000000000001,-0.8125
14.282,-2.0
14.284,-2.3125
14.286,-1.75
14.288,-1.75
14.290000000000001,-0.875
14.292,-1.625
14.294,-2.0625
14.296000000000001,-3.0
14.298,-1.1875
14.3,-1.0
14.302,-2.0
14.304,-1.75
14.306000000000001,-1.6875
14.308,-1.6875
14.31,-2.0
14.312000000000001,-3.8125
14.314,-1.6875
14.316,-1.75
14.318,-1.375
14.32,-2.4375
14.322000000000001,-2.5625
14.324,-1.8125
14.326,-1.4375
14.328000000000001,-2.125
14.33,-1.9375
14.332,-1.1875
14.334,-1.5
14.336,-1.9375
14.338000000000001,-1.75
14.34,-1.3125
14.342,-1.875
14.344,-1.9375
14.346,-1.3125
14.348,-0.25
14.35,-1.5
14.352,-0.6875
14.354000000000001,-1.3125
14.356,-0.75
14.358,-0.75
14.36,-1.3125
14.362,-0.5625
14.364,0.5
14.366,-1.625
14.368,-1.0
14.370000000000001,-0.4375
14.372,-0.8125
14.374,-0.625
14.376,-0.0625
14.378,0.0625
14.38,-0.25
14.382,-0.5625
14.384,-0.125
14.386000000000001,0.0
14.388,-0.125
14.39,1.0625
14.392,-0.5
14.394,0.1875
14.396,1.0
14.398,0.6875
14.4,0.5625
14.402000000000001,-0.1875
14.404,0.3125
14.406,0.5625
14.408,-0.125
14.41,-0.0625
14.412,0.5625
14.414,0.4375
14.416,0.1875
14.418000000000001,0.6875
14.42,1.6875
14.422,1.0
14.424,1.5
14.426,0.375
14.428,1.0
14.43,1.125
14.432,1.375
14.434000000000001,1.25
14.436,0.4375
14.438,1.0625
14.44,0.8125
14.442,1.3125
14.444,0.125
14.446,1.5625
14.448,0.4375
14.450000000000001,0.25
14.452,0.0
14.454,0.5625
14.456,0.3125
14.458,1.4375
14.46,0.375
14.462,-0.875
14.464,-0.8125
14.466000000000001,0.125
14.468,-0.125
14.47,-0.6875
14.472,-1.0
14.474,-0.9375
14.476,-0.9375
14.478,-0.9375
14.48,-2.375
14.482000000000001,0.375
14.484,-0.5625
14.486,-2.875
14.488,-1.875
14.49,-2.1875
14.492,-3.625
14.494,-2.25
14.496,-3.0625
14.498000000000001,-3.25
14.5,-2.0
14.502,-0.4375
14.504,-2.5625
14.506,-2.875
14.508000000000001,-2.125
14.51,-2.1875
14.512,-2.875
14.514000000000001,-2.25
14.516,-2.0
14.518,-3.625
14.52,-3.6875
14.522,-2.0625
14.524000000000001,-2.4375
14.526,-3.1875
14.528,-2.625
14.530000000000001,-2.0
14.532,-3.75
14.534,-3.75
14.536,-1.75
14.538,-0.9375
14.540000000000001,-1.1875
14.542,-3.25
14.544,-2.6875
14.546000000000001,-2.625
14.548,-2.75
14.55,-3.25
14.552,-2.6875
14.554,-3.0
14.556000000000001,-2.375
14.558,-2.3125
14.56,-2.0
14.562000000000001,-2.25
14.564,-2.6875
14.566,-1.9375
14.568,-2.6875
14.57,-2.1875
14.572000000000001,-1.8125
14.574,-2.5
14.576,-2.4375
14.578000000000001,-2.375
14.58,-2.3125
14.582,-2.375
14.584,-3.3125
14.586,-3.0625
14.588000000000001,-3.625
14.59,-3.875
14.592,-2.5625
14.594,-1.625
14.596,-1.75
14.598,-1.75
14.6,-1.75
14.602,-1.5625
14.604000000000001,-1.5625
14.606,-2.5625
14.608,-0.9375
14.61,-0.375
14.612,-3.3125
14.614,-3.3125
14.616,-3.6875
14.618,-2.3125
14.620000000000001,-1.3125
14.622,-1.0625
14.624,-1.375
14.626,-1.5625
14.628,-2.9375
14.63,-2.875
14.632,-2.3125
14.634,-1.6875
14.636000000000001,-1.5
14.638,-1.6875
14.64,-1.875
14.642,-2.0
14.644,-1.75
14.646,-1.125
14.648,-2.3125
14.65,-2.125
14.652000000000001,-1.75
14.654,-2.375
14.656,-2.0625
14.658,-2.25
14.66,-1.9375
14.662,-1.9375
14.664,-2.375
14.666,-3.1875
14.668000000000001,-2.75
14.67,-1.4375
14.672,-2.5625
14.674,-2.625
14.676,-1.9375
14.678,-1.6875
14.68,-2.0625
14.682,-2.375
14.684000000000001,-2.5
14.686,-1.4375
14.688,-1.9375
14.69,-2.1875
14.692,-2.4375
14.694,-2.0625
14.696,-2.125
14.698,-1.8125
14.700000000000001,-1.8125
14.702,-2.25
14.704,-2.0
14.706,-1.625
14.708,-3.0
14.71,-2.8125
14.712,-2.5625
14.714,-0.875
14.716000000000001,-2.5
14.718,-2.25
14.72,-1.8125
14.722,0.125
14.724,-1.875
14.726,-2.6875
14.728,-2.375
14.73,-2.6875
14.732000000000001,-2.4375
14.734,-1.625
14.736,-2.4375
14.738,-3.25
14.74,-2.8125
14.742,-1.4375
14.744,-2.75
14.746,-2.625
14.748000000000001,-1.75
14.75,-2.0
14.752,-2.6875
14.754,-2.125
14.756,-1.8125
14.758000000000001,-1.6875
14.76,-1.0625
14.762,-2.625
14.764000000000001,-2.375
14.766,-2.125
14.768,-2.625
14.77,-2.125
14.772,-2.125
14.774000000000001,-1.375
14.776,-1.5
14.778,-1.5625
14.780000000000001,-1.8125
14.782,-2.25
14.784,-2.125
14.786,-2.0
14.788,-2.4375
14.790000000000001,-2.0
14.792,-3.5625
14.794,-3.0
14.796000000000001,-2.8125
14.798,-1.9375
14.8,-1.25
14.802,-1.3125
14.804,-2.0
14.806000000000001,-2.25
14.808,-0.625
14.81,-1.0625
14.812000000000001,-0.875
14.814,-1.0625
14.816,-2.0625
14.818,-0.8125
14.82,-0.875
14.822000000000001,-1.0625
14.824,-1.3125
14.826,-1.0625
14.828000000000001,-2.0
14.83,-1.5
14.832,-1.3125
14.834,-1.5625
14.836,-1.5625
14.838000000000001,-1.5625
14.84,-2.3125
14.842,-1.5
14.844000000000001,-1.0625
14.846,-1.75
14.848,-1.5
14.85,-1.875
14.852,-2.4375
14.854000000000001,-1.1875
14.856,-1.25
14.858,-2.625
14.86,-3.125
14.862,-2.375
14.864,-1.4375
14.866,-2.0625
14.868,-1.3125
14.870000000000001,-1.5
14.872,-1.6875
14.874,-2.4375
14.876,-1.6875
14.878,-1.5
14.88,-1.6875
14.882,-2.5
14.884,-3.8125
14.886000000000001,-1.875
14.888,-2.0625
14.89,-2.5
14.892,-1.9375
14.894,-1.625
14.896,-2.5625
14.898,-3.0625
14.9,-1.1875
14.902000000000001,-0.4375
14.904,-2.1875
14.906,-3.4375
14.908,-1.375
14.91,-1.5625
14.912,0.4375
14.914,1.3125
14.916,0.75
14.918000000000001,0.0625
14.92,0.0625
14.922,1.125
14.924,1.5
14.926,1.1875
14.928,1.125
14.93,-0.0625
14.932,0.5
14.934000000000001,0.8125
14.936,1.1875
14.938,0.125
14.94,1.0
14.942,-0.625
14.944,-0.5
14.946,-0.625
14.948,-1.5625
14.950000000000001,-2.1875
14.952,-2.1875
14.954,-3.1875
14.956,-2.875
14.958,-3.25
14.96,-3.875
14.962,-2.4375
14.964,-2.375
14.966000000000001,-1.9375
14.968,-1.75
14.97,-2.1875
14.972,-1.5625
14.974,-1.375
14.976,-1.5
14.978,-1.0
14.98,-1.625
14.982000000000001,-1.5
14.984,-0.9375
14.986,-0.75
14.988,-1.3125
14.99,-1.4375
14.992,-2.5625
14.994,-2.25
14.996,-0.875
14.998000000000001,-2.0625
15.0,0.1875
15.002,0.375
15.004,0.0
15.006,-1.75
15.008000000000001,-1.625
15.01,-0.6875
15.012,-2.0625
15.014000000000001,-0.3125
15.016,-0.9375
15.018,-1.25
15.02,-2.0625
15.022,0.1875
15.024000000000001,0.625
15.026,-0.1875
15.028,-1.3125
15.030000000000001,-1.3125
15.032,-0.625
15.034,-0.875
15.036,-0.875
15.038,-0.5
15.040000000000001,-0.5
15.042,-0.3125
15.044,-1.25
15.046000000000001,-0.8125
15.048,0.0
15.05,0.625
15.052,-0.1875
15.054,-0.75
15.056000000000001,-1.75
15.058,-0.6875
15.06,-0.9375
15.062000000000001,-1.125
15.064,0.125
15.066,0.0
15.068,-0.125
15.07,0.125
15.072000000000001,-0.3125
15.074,-0.3125
15.076,-0.0625
15.078000000000001,-1.125
15.08,0.0625
15.082,1.6875
15.084,-0.1875
15.086,-1.1875
15.088000000000001,-0.375
15.09,0.375
15.092,0.1875
15.094000000000001,0.1875
15.096,1.4375
15.098,0.875
15.1,0.1875
15.102,-0.8125
15.104000000000001,0.8125
15.106,0.9375
15.108,0.1875
15.11,1.375
15.112,0.9375
15.114,0.5625
15.116,2.9375
15.118,0.5
15.120000000000001,1.3125
15.122,2.375
15.124,1.5625
15.126,1.5
15.128,1.25
15.13,1.5625
15.132,1.5625
15.134,1.3125
15.136000000000001,1.4375
15.138,1.3125
15.14,1.4375
15.142,2.125
15.144,0.875
15.146,1.0
15.148,0.5625
15.15,4.5625
15.152000000000001,3.375
15.154,1.625
15.156,3.125
15.158,3.125
15.16,2.75
15.162,3.0
15.164,1.75
15.166,1.75
15.168000000000001,0.625
15.17,2.4375
15.172,2.375
15.174,2.4375
15.176,3.0625
15.178,4.75
15.18,4.3125
15.182,2.4375
15.184000000000001,0.875
15.186,2.0
15.188,2.4375
15.19,2.0625
15.192,2.875
15.194,0.8125
15.196,1.25
15.198,1.625
15.200000000000001,1.1875
15.202,1.5625
15.204,1.625
15.206,0.375
15.208,1.1875
15.21,0.1875
15.212,2.0625
15.214,0.75
15.216000000000001,0.25
15.218,-0.125
15.22,-0.1875
15.222,-0.75
15.224,-0.5
15.226,0.5
15.228,-0.4375
15.23,-0.25
15.232000000000001,-1.625
15.234,-1.0625
15.236,0.125
15.238,-0.3125
15.24,-0.4375
15.242,-0.9375
15.244,-1.125
15.246,-0.5625
15.248000000000001,-1.0625
15.25,-1.0
15.252,-2.1875
15.254,-2.3125
15.256,-1.9375
15.258000000000001,0.625
15.26,-1.0625
15.262,-0.875
15.264000000000001,-1.1875
15.266,-1.5625
15.268,0.125
15.27,-0.6875
15.272,-1.8125
15.274000000000001,-0.75
15.276,-0.875
15.278,-1.375
15.280000000000001,-1.9375
15.282,-1.375
15.284,-1.25
15.286,-2.125
15.288,-1.75
15.290000000000001,-0.75
15.292,-1.125
15.294,-0.875
15.296000000000001,-0.25
15.298,0.25
15.3,-2.5625
15.302,-1.5
15.304,-0.75
15.306000000000001,-1.8125
15.308,-1.3125
15.31,-1.25
15.312000000000001,-1.9375
15.314,-1.125
15.316,-0.9375
15.318,-0.75
15.32,-0.875
15.322000000000001,-1.75
15.324,-1.5625
15.326,-1.25
15.328000000000001,-2.1875
15.33,-1.25
15.332,-0.9375
15.334,0.4375
15.336,-0.5
15.338000000000001,-0.1875
15.34,-0.8125
15.342,-1.25
15.344000000000001,-0.875
15.346,-1.4375
15.348,-0.375
15.35,-1.25
15.352,-1.1875
15.354000000000001,1.6875
15.356,-1.0625
15.358,-0.375
15.36,-0.625
15.362,-0.875
15.364,-1.3125
15.366,-1.125
15.368,-1.0
15.370000000000001,-0.75
15.372,-1.25
15.374,0.125
15.376,0.3125
15.378,-1.5
15.38,-1.5
15.382,-0.9375
15.384,-1.8125
15.386000000000001,-1.25
15.388,-0.375
15.39,-0.8125
15.392,-0.5
15.394,-0.25
15.396,-0.75
15.398,-0.875
15.4,0.0625
15.402000000000001,-0.9375
15.404,-1.1875
15.406,-1.5
15.408,0.9375
15.41,-0.625
15.412,-1.75
15.414,-0.8125
15.416,-1.8125
15.418000000000001,-1.625
15.42,-1.4375
15.422,-1.0
15.424,0.25
15.426,-0.875
15.428,-0.5
15.43,0.5625
15.432,-0.1875
15.434000000000001,-1.5
15.436,-1.3125
15.438,-1.5625
15.44,0.0
15.442,-1.125
15.444,-0.25
15.446,-0.5625
15.448,-0.3125
15.450000000000001,-1.4375
15.452,-0.1875
15.454,0.125
15.456,-1.0
15.458,-0.75
15.46,-0.9375
15.462,0.5625
15.464,-0.1875
15.466000000000001,-0.125
15.468,-1.25
15.47,-1.125
15.472,-0.25
15.474,-0.375
15.476,-1.9375
15.478,-1.0
15.48,-1.1875
15.482000000000001,-1.375
15.484,-0.0625
15.486,0.75
15.488,-1.0625
15.49,-0.875
15.492,-0.1875
15.494,-0.875
15.496,-1.875
15.498000000000001,-0.8125
15.5,-0.625
15.502,-0.375
15.504,-0.3125
15.506,-0.4375
15.508000000000001,0.125
15.51,0.0625
15.512,0.5
15.514000000000001,-0.0625
15.516,-2.4375
15.518,-1.4375
15.52,-1.4375
15.522,-1.25
15.524000000000001,-1.0625
15.526,-1.75
15.528,-0.625
15.530000000000001,0.4375
15.532,0.0625
15.534,0.25
15.536,-1.25
15.538,-1.0625
15.540000000000001,-0.25
15.542,0.0
15.544,-1.25
15.546000000000001,-0.3125
15.548,-1.8125
15.55,-1.1875
15.552,-0.3125
15.554,0.1875
15.556000000000001,-0.125
15.558,0.6875
15.56,0.625
15.562000000000001,-0.6875
15.564,-0.375
15.566,0.5625
15.568,-0.375
15.57,-0.625
15.572000000000001,-0.25
15.574,-0.375
15.576,0.0
15.578000000000001,0.25
15.58,1.125
15.582,0.375
15.584,0.5
15.586,-0.5
15.588000000000001,0.4375
15.59,2.25
15.592,-1.5625
15.594000000000001,-0.625
15.596,-0.625
15.598,-0.9375
15.6,-1.8125
15.602,-0.5
15.604000000000001,-0.0625
15.606,0.25
15.608,-0.6875
15.610000000000001,0.0
15.612,-0.9375
15.614,-0.5625
15.616,-0.6875
15.618,-0.0625
15.620000000000001,-0.25
15.622,0.6875
15.624,0.5625
15.626,-2.9375
15.628,-1.3125
15.63,-0.4375
15.632,-1.25
15.634,-1.5
15.636000000000001,-0.875
15.638,-0.8125
15.64,-1.1875
15.642,-0.125
15.644,-0.75
15.646,-1.125
15.648,0.1875
15.65,-0.0625
15.652000000000001,-0.875
15.654,-1.25
15.656,-1.125
15.658,1.0
15.66,0.25
15.662,2.3125
15.664,2.9375
15.666,2.8125
15.668000000000001,2.5
15.67,3.0625
15.672,3.75
15.674,-0.1875
15.676,0.5
15.678,1.0625
15.68,2.0
15.682,2.75
15.684000000000001,2.0
15.686,1.3125
15.688,1.3125
15.69,0.4375
15.692,0.1875
15.694,-1.4375
15.696,-1.4375
15.698,-2.125
15.700000000000001,-0.875
15.702,-2.25
15.704,-3.125
15.706,-3.4375
15.708,-1.625
15.71,-0.9375
15.712,-1.125
15.714,-0.375
15.716000000000001,-0.3125
15.718,-0.875
15.72,-0.375
15.722,0.25
15.724,0.75
15.726,-0.5
15.728,-1.0625
15.73,-0.25
15.732000000000001,0.0625
15.734,-0.4375
15.736,-0.625
15.738,0.8125
15.74,-1.0625
15.742,0.0
15.744,1.375
15.746,0.3125
15.748000000000001,0.3125
15.75,0.1875
15.752,0.4375
15.754,-0.1875
15.756,0.0625
15.758000000000001,-0.5
15.76,-0.25
15.762,0.0625
15.764000000000001,0.1875
15.766,0.1875
15.768,0.0625
15.77,0.875
15.772,-0.375
15.774000000000001,0.0625
15.776,0.0
15.778,2.125
15.780000000000001,1.1875
15.782,0.75
15.784,1.8125
15.786,0.6875
15.788,0.125
15.790000000000001,0.3125
15.792,-0.1875
15.794,-0.0625
15.796000000000001,0.125
15.798,1.25
15.8,1.6875
15.802,1.0
15.804,1.4375
15.806000000000001,0.625
15.808,1.375
15.81,1.0625
15.812000000000001,1.875
15.814,1.0625
15.816,-1.375
15.818,-0.5
15.82,0.5
15.822000000000001,0.875
15.824,0.6875
15.826,0.4375
15.828000000000001,1.375
15.83,1.5
15.832,1.625
15.834,1.1875
15.836,0.625
15.838000000000001,1.5625
15.84,1.375
15.842,1.4375
15.844000000000001,1.1875
15.846,1.125
15.848,1.4375
15.85,1.75
15.852,1.75
15.854000000000001,1.125
15.856,1.5625
15.858,1.5625
15.860000000000001,1.375
15.862,2.5625
15.864,2.0625
15.866,3.125
15.868,2.0625
15.870000000000001,2.5
15.872,2.875
15.874,1.75
15.876,2.5625
15.878,2.6875
15.88,1.6875
15.882,2.1875
15.884,3.125
15.886000000000001,3.1875
15.888,3.9375
15.89,1.0
15.892,2.5
15.894,3.0
15.896,3.75
15.898,3.75
15.9,4.0625
15.902000000000001,3.0625
15.904,3.4375
15.906,3.4375
15.908,3.125
15.91,2.125
15.912,3.5625
15.914,5.3125
15.916,4.625
15.918000000000001,1.6875
15.92,2.0625
15.922,3.25
15.924,1.5625
15.926,2.375
15.928,2.0
15.93,3.0
15.932,2.5625
15.934000000000001,3.0
15.936,3.1875
15.938,2.3125
15.94,2.25
15.942,1.875
15.944,1.8125
15.946,2.6875
15.948,1.625
15.950000000000001,1.9375
15.952,1.4375
15.954,1.25
15.956,1.375
15.958,1.5625
15.96,1.3125
15.962,1.875
15.964,0.75
15.966000000000001,0.6875
15.968,2.125
15.97,0.0
15.972,0.875
15.974,0.375
15.976,0.8125
15.978,-0.375
15.98,0.375
15.982000000000001,0.25
15.984,-0.4375
15.986,0.625
15.988,-0.375
15.99,-0.375
15.992,0.25
15.994,-0.3125
15.996,0.125
15.998000000000001,-0.375
16.0,0.6875
16.002,-0.0625
16.004,-0.9375
16.006,-0.875
16.008,0.125
16.01,-0.8125
16.012,-0.5
16.014,0.5
16.016000000000002,-0.9375
16.018,-0.4375
16.02,-1.375
16.022000000000002,-0.75
16.024,0.25
16.026,0.0
16.028,0.125
16.03,-1.4375
16.032,-1.125
16.034,-1.0
16.036,-0.125
16.038,-0.25
16.04,-0.625
16.042,-0.5625
16.044,-0.25
16.046,-1.25
16.048000000000002,-1.25
16.05,-0.875
16.052,1.125
16.054000000000002,-0.0625
16.056,0.5
16.058,-0.8125
16.06,-0.375
16.062,-1.125
16.064,-0.5
16.066,0.0
16.068,0.0625
16.07,-0.25
16.072,-0.0625
16.074,-0.375
16.076,-1.125
16.078,0.375
16.080000000000002,1.1875
16.082,0.625
16.084,0.625
16.086000000000002,-1.25
16.088,-0.8125
16.09,-1.125
16.092,0.5
16.094,-1.8125
16.096,-0.875
16.098,0.0625
16.1,0.4375
16.102,0.0625
16.104,0.3125
16.106,0.875
16.108,0.5
16.11,-0.25
16.112000000000002,-0.1875
16.114,-0.875
16.116,-1.0625
16.118000000000002,0.375
16.12,0.25
16.122,0.3125
16.124,-0.875
16.126,1.0
16.128,0.5
16.13,-1.25
16.132,-0.5
16.134,-0.4375
16.136,-0.5
16.138,-0.625
16.14,1.0
16.142,-0.4375
16.144000000000002,-1.6875
16.146,-0.25
16.148,0.8125
16.15,0.5
16.152,0.625
16.154,-0.875
16.156,0.125
16.158,-0.8125
16.16,-0.6875
16.162,-0.6875
16.164,-1.3125
16.166,0.1875
16.168,-0.25
16.17,-1.5
16.172,-0.0625
16.174,0.125
16.176000000000002,-0.4375
16.178,-1.0625
16.18,-1.375
16.182,0.375
16.184,0.0625
16.186,0.125
16.188,-0.625
16.19,-0.625
16.192,0.5
16.194,0.75
16.196,0.8125
16.198,1.3125
16.2,-0.8125
16.202,0.3125
16.204,-0.125
16.206,-0.125
16.208000000000002,0.1875
16.21,-0.125
16.212,-0.75
16.214,-0.125
16.216,-0.4375
16.218,-0.375
16.22,-0.25
16.222,0.625
16.224,-2.0625
16.226,-0.6875
16.228,0.0
16.23,-1.1875
16.232,-1.25
16.234,-0.5625
16.236,0.25
16.238,0.0625
16.240000000000002,-0.5
16.242,-2.1875
16.244,-0.25
16.246,-1.1875
16.248,-0.4375
16.25,-1.0
16.252,-1.5
16.254,-0.6875
16.256,0.125
16.258,-0.3125
16.26,-0.375
16.262,0.1875
16.264,-0.0625
16.266000000000002,0.4375
16.268,0.375
16.27,-0.25
16.272000000000002,-0.1875
16.274,-0.75
16.276,0.8125
16.278,0.625
16.28,0.375
16.282,0.3125
16.284,-1.0
16.286,1.5
16.288,2.25
16.29,2.5625
16.292,1.3125
16.294,1.0
16.296,0.1875
16.298000000000002,-0.125
16.3,0.1875
16.302,-0.625
16.304000000000002,0.0625
16.306,-0.1875
16.308,-0.3125
16.31,-1.4375
16.312,0.0625
16.314,-0.125
16.316,0.0
16.318,-0.875
16.32,-0.8125
16.322,-0.6875
16.324,-0.8125
16.326,-0.625
16.328,0.0
16.330000000000002,-0.625
16.332,-1.4375
16.334,-0.25
16.336000000000002,1.9375
16.338,-2.0625
16.34,-2.5625
16.342,-1.25
16.344,-1.0
16.346,-1.1875
16.348,-0.625
16.35,-0.0625
16.352,0.8125
16.354,0.3125
16.356,-0.8125
16.358,-0.8125
16.36,2.0
16.362000000000002,-1.0625
16.364,-1.4375
16.366,0.375
16.368000000000002,0.3125
16.37,-0.5625
16.372,0.625
16.374,0.75
16.376,2.125
16.378,1.9375
16.38,2.3125
16.382,1.6875
16.384,2.4375
16.386,2.0
16.388,2.375
16.39,2.25
16.392,2.375
16.394000000000002,2.875
16.396,2.9375
16.398,1.8125
16.4,0.125
16.402,-1.6875
16.404,-0.875
16.406,-0.4375
16.408,-1.0625
16.41,-1.3125
16.412,-1.5
16.414,-2.5
16.416,-2.3125
16.418,-0.0625
16.42,0.3125
16.422,-0.875
16.424,0.4375
16.426000000000002,-0.875
16.428,-1.5
16.43,-0.6875
16.432,-0.625
16.434,-1.25
16.436,-0.6875
16.438,-0.0625
16.44,-0.1875
16.442,1.0
16.444,1.0
16.446,0.75
16.448,-0.125
16.45,1.5625
16.452,0.25
16.454,0.1875
16.456,0.625
16.458000000000002,-0.625
16.46,0.6875
16.462,2.25
16.464,1.4375
16.466,1.25
16.468,0.0625
16.47,1.1875
16.472,-0.4375
16.474,0.375
16.476,0.875
16.478,1.1875
16.48,0.25
16.482,-0.5625
16.484,0.9375
16.486,-0.625
16.488,-0.0625
16.490000000000002,-0.6875
16.492,0.4375
16.494,0.75
16.496,0.25
16.498,0.5625
16.5,0.1875
16.502,0.375
16.504,0.5
16.506,0.5625
16.508,0.9375
16.51,0.8125
16.512,-0.5
16.514,-0.375
16.516000000000002,1.125
16.518,1.125
16.52,0.375
16.522000000000002,0.875
16.524,1.1875
16.526,2.125
16.528,2.25
16.53,1.1875
16.532,0.75
16.534,1.4375
16.536,1.25
16.538,1.3125
16.54,1.0
16.542,1.1875
16.544,2.875
16.546,2.4375
16.548000000000002,0.8125
16.55,0.125
16.552,1.25
16.554000000000002,1.3125
16.556,1.9375
16.558,0.8125
16.56,2.375
16.562,3.1875
16.564,2.9375
16.566,1.8125
16.568,1.4375
16.57,1.75
16.572,1.5
16.574,2.4375
16.576,0.8125
