Time,ECG
0.0,-1.0
0.002,-0.5
0.004,-0.2
0.006,-0.6
0.008,-0.8
0.01,-1.1
0.012,-1.9
0.014,-1.4
0.016,-0.5
0.018000000000000002,-0.6
0.02,-0.8
0.022,-0.1
0.024,-0.3
0.026000000000000002,-0.9
0.028,-1.0
0.03,-1.0
0.032,-1.2
0.034,-1.1
0.036000000000000004,-0.6
0.038,-0.9
0.04,-0.4
0.042,-0.1
0.044,-1.1
0.046,-1.1
0.048,-1.0
0.05,-0.4
0.052000000000000005,-0.8
0.054,-0.4
0.056,-0.4
0.058,-0.4
0.06,-0.9
0.062,-0.2
0.064,-0.4
0.066,-0.8
0.068,-0.8
0.07,-1.0
0.07200000000000001,-1.5
0.074,-1.2
0.076,-0.7
0.078,-0.6
0.08,-0.8
0.082,-0.2
0.084,-0.3
0.08600000000000001,-0.4
0.088,-0.4
0.09,-0.6
0.092,-1.3
0.094,-1.2
0.096,-1.0
0.098,-1.4
0.1,-0.8
0.10200000000000001,-0.5
0.10400000000000001,-0.7
0.106,-0.7
0.108,-0.5
0.11,-0.9
0.112,-1.2
0.114,-1.2
0.116,-0.4
0.11800000000000001,-0.4
0.12,-0.4
0.122,-0.7
0.124,-1.0
0.126,-0.5
0.128,-0.7
0.13,-0.7
0.132,-0.9
0.134,-1.0
0.136,-1.0
0.138,-0.7
0.14,-0.6
0.14200000000000002,-0.6
0.14400000000000002,-0.9
0.146,-1.0
0.148,-0.6
0.15,-0.8
0.152,-0.8
0.154,-0.8
0.156,-0.9
0.158,-1.4
0.16,-0.7
0.162,-0.9
0.164,-0.7
0.166,-1.1
0.168,-1.0
0.17,-1.2
0.17200000000000001,-0.9
0.17400000000000002,-0.8
0.176,-0.9
0.178,-1.2
0.18,0.1
0.182,-0.3
0.184,-1.2
0.186,-1.2
0.188,-1.4
0.19,-1.5
0.192,-1.2
0.194,-1.0
0.196,-0.7
0.198,-0.7
0.2,0.0
0.202,-0.1
0.20400000000000001,-0.6
0.20600000000000002,-0.8
0.20800000000000002,-0.5
0.21,-1.3
0.212,-1.3
0.214,-1.1
0.216,-1.1
0.218,-1.0
0.22,-0.4
0.222,0.0
0.224,0.3
0.226,0.0
0.228,-0.7
0.23,-1.5
0.232,-1.4
0.234,-1.1
0.23600000000000002,-0.8
0.23800000000000002,-1.1
0.24,-1.0
0.242,-1.0
0.244,-1.0
0.246,-1.2
0.248,-0.5
0.25,-0.9
0.252,-0.5
0.254,-0.4
0.256,-0.6
0.258,-0.8
0.26,-0.2
0.262,-0.4
0.264,-0.5
0.266,-0.4
0.268,-0.3
0.27,-0.6
0.272,-0.4
0.274,-0.1
0.276,-0.2
0.278,0.1
0.28,0.5
0.28200000000000003,-0.1
0.28400000000000003,-0.1
0.28600000000000003,-0.3
0.28800000000000003,-0.3
0.29,-0.6
0.292,-0.1
0.294,0.0
0.296,-0.2
0.298,-0.1
0.3,0.2
0.302,0.3
0.304,0.1
0.306,-0.3
0.308,-0.2
0.31,-0.7
0.312,-0.8
0.314,-0.7
0.316,-0.7
0.318,-0.7
0.32,-0.3
0.322,-0.6
0.324,-0.8
0.326,-1.3
0.328,-1.0
0.33,-1.0
0.332,-1.4
0.334,-1.2
0.336,-1.2
0.338,-1.1
0.34,-0.7
0.342,-1.2
0.34400000000000003,-1.4
0.34600000000000003,-1.1
0.34800000000000003,-1.0
0.35000000000000003,-0.9
0.352,-0.3
0.354,-1.2
0.356,-1.2
0.358,-1.1
0.36,-1.1
0.362,-1.1
0.364,-1.4
0.366,-1.2
0.368,-1.4
0.37,-1.2
0.372,-1.0
0.374,-1.0
0.376,-1.3
0.378,-1.4
0.38,-1.0
0.382,-0.5
0.384,-0.9
0.386,-1.1
0.388,-1.4
0.39,-2.1
0.392,-2.2
0.394,-2.2
0.396,-2.3
0.398,-1.9
0.4,-1.9
0.402,-2.5
0.404,-2.8
0.406,-2.2
0.40800000000000003,-1.9
0.41000000000000003,-0.6
0.41200000000000003,1.4
0.41400000000000003,3.2
0.41600000000000004,4.7
0.418,6.2
0.42,7.8
0.422,8.8
0.424,8.9
0.426,8.3
0.428,6.9
0.43,4.8
0.432,5.4
0.434,5.4
0.436,3.4
0.438,2.0
0.44,-0.7
0.442,-3.5
0.444,-3.9
0.446,-3.5
0.448,-3.8
0.45,-3.8
0.452,-3.3
0.454,-3.1
0.456,-3.0
0.458,-2.3
0.46,-2.1
0.462,-1.7
0.464,-1.5
0.466,-1.6
0.468,-2.0
0.47000000000000003,-1.1
0.47200000000000003,-1.1
0.47400000000000003,-0.6
0.47600000000000003,-0.9
0.47800000000000004,-0.3
0.48,-0.6
0.482,-0.8
0.484,-0.9
0.486,-0.8
0.488,-1.2
0.49,-0.8
0.492,-0.4
0.494,0.1
0.496,-0.2
0.498,-0.1
0.5,0.0
0.502,-0.5
0.504,-0.5
0.506,-0.5
0.508,-0.8
0.51,-0.4
0.512,-0.2
0.514,-0.3
0.516,-0.6
0.518,0.3
0.52,-0.3
0.522,-0.3
0.524,-0.6
0.526,-0.3
0.528,-0.7
0.53,-0.7
0.532,-0.1
0.534,0.1
0.536,0.0
0.538,0.6
0.54,0.4
0.542,0.0
0.544,-0.3
0.546,0.5
0.548,-0.3
0.55,-0.1
0.552,-0.1
0.554,0.0
0.556,-0.2
0.558,1.0
0.56,0.4
0.562,0.4
0.5640000000000001,0.4
0.5660000000000001,0.4
0.5680000000000001,-0.1
0.5700000000000001,0.6
0.5720000000000001,0.4
0.5740000000000001,0.1
0.5760000000000001,0.1
0.578,0.6
0.58,0.6
0.582,0.3
0.584,0.4
0.586,0.7
0.588,0.5
0.59,0.8
0.592,1.3
0.594,1.4
0.596,1.1
0.598,1.5
0.6,1.5
0.602,1.1
0.604,1.2
0.606,1.4
0.608,1.2
0.61,1.7
0.612,1.8
0.614,1.6
0.616,1.5
0.618,2.6
0.62,2.7
0.622,2.1
0.624,2.1
0.626,2.4
0.628,1.9
0.63,2.5
0.632,2.8
0.634,2.9
0.636,3.5
0.638,4.1
0.64,3.8
0.642,3.7
0.644,3.2
0.646,3.0
0.648,3.6
0.65,3.8
0.652,4.0
0.654,4.1
0.656,4.6
0.658,4.9
0.66,5.0
0.662,4.9
0.664,4.9
0.666,4.6
0.668,4.4
0.67,4.6
0.672,4.6
0.674,4.4
0.676,4.4
0.678,4.5
0.68,4.7
0.682,4.5
0.684,4.6
0.686,4.4
0.6880000000000001,3.5
0.6900000000000001,3.6
0.6920000000000001,3.5
0.6940000000000001,3.3
0.6960000000000001,3.9
0.6980000000000001,4.0
0.7000000000000001,3.4
0.7020000000000001,2.6
0.704,2.3
0.706,1.5
0.708,1.5
0.71,1.8
0.712,1.0
0.714,0.9
0.716,1.7
0.718,1.3
0.72,0.9
0.722,0.5
0.724,0.5
0.726,0.1
0.728,0.1
0.73,0.1
0.732,-0.4
0.734,-0.5
0.736,0.5
0.738,0.4
0.74,0.0
0.742,-0.6
0.744,-0.1
0.746,-0.9
0.748,-0.8
0.75,-0.7
0.752,-0.6
0.754,-0.9
0.756,-0.4
0.758,-0.4
0.76,-0.4
0.762,-0.7
0.764,-0.6
0.766,-1.4
0.768,-0.9
0.77,-0.1
0.772,0.2
0.774,-0.5
0.776,-0.1
0.778,-0.4
0.78,-0.1
0.782,-1.0
0.784,-0.9
0.786,-1.3
0.788,-1.2
0.79,-0.8
0.792,-0.6
0.794,-0.9
0.796,-0.4
0.798,-0.4
0.8,-0.7
0.802,-0.9
0.804,-0.9
0.806,-1.3
0.808,-1.1
0.81,-0.7
0.812,-0.5
0.8140000000000001,-0.6
0.8160000000000001,-0.3
0.8180000000000001,-0.3
0.8200000000000001,-0.6
0.8220000000000001,-0.9
0.8240000000000001,-0.6
0.8260000000000001,-1.4
0.8280000000000001,-0.9
0.8300000000000001,-0.8
0.8320000000000001,-0.7
0.834,-1.1
0.836,0.0
0.838,-0.1
0.84,0.0
0.842,-0.5
0.844,-0.4
0.846,-1.1
0.848,-1.3
0.85,-1.1
0.852,-1.0
0.854,-1.0
0.856,0.0
0.858,0.1
0.86,0.5
0.862,-0.2
0.864,-0.7
0.866,-1.2
0.868,-1.0
0.87,-1.1
0.872,-1.2
0.874,-0.9
0.876,-0.1
0.878,-0.1
0.88,-0.4
0.882,-0.2
0.884,-0.3
0.886,-0.5
0.888,-0.6
0.89,-0.8
0.892,-0.4
0.894,-0.5
0.896,0.1
0.898,-0.1
0.9,-0.5
0.902,-0.5
0.904,-0.2
0.906,-0.7
0.908,-1.0
0.91,-0.4
0.912,-0.4
0.914,-0.2
0.916,-0.2
0.918,-0.8
0.92,-0.2
0.922,-0.4
0.924,-0.5
0.926,-0.9
0.928,0.0
0.93,-0.3
0.932,-0.8
0.934,-0.1
0.936,-0.1
0.9380000000000001,-0.6
0.9400000000000001,-1.1
0.9420000000000001,-0.9
0.9440000000000001,-0.8
0.9460000000000001,-0.8
0.9480000000000001,-0.7
0.9500000000000001,-0.4
0.9520000000000001,0.3
0.9540000000000001,0.3
0.9560000000000001,-0.1
0.9580000000000001,-0.3
0.96,-0.6
0.962,-1.1
0.964,-1.2
0.966,-0.9
0.968,-0.9
0.97,-0.1
0.972,-0.3
0.974,-0.1
0.976,-0.3
0.978,-0.6
0.98,-0.5
0.982,-0.9
0.984,-1.6
0.986,-1.7
0.988,-1.4
0.99,-0.6
0.992,-0.4
0.994,-0.4
0.996,-0.6
0.998,0.0
1.0,-0.2
1.002,-0.4
1.004,-1.1
1.006,-1.0
1.008,-0.5
1.01,-0.3
1.012,-0.4
1.014,0.1
1.016,0.1
1.018,-0.4
1.02,-0.4
1.022,-0.4
1.024,-1.1
1.026,-0.7
1.028,-0.2
1.03,-0.2
1.032,-0.6
1.034,-0.3
1.036,-0.3
1.038,-0.3
1.04,-0.7
1.042,-0.8
1.044,-0.9
1.046,-0.9
1.048,-0.6
1.05,-0.1
1.052,-0.8
1.054,-0.2
1.056,-0.3
1.058,-0.4
1.06,-0.4
1.062,-0.1
1.064,-0.5
1.066,-0.4
1.068,-0.3
1.07,-0.3
1.072,-0.6
1.074,-0.2
1.076,-0.3
1.078,-1.0
1.08,-0.9
1.082,0.1
1.084,-0.9
1.086,-0.3
1.088,0.1
1.09,0.5
1.092,0.1
1.094,0.2
1.096,0.4
1.098,0.1
1.1,-0.5
1.102,0.2
1.104,-0.2
1.106,0.5
1.108,0.7
1.11,0.7
1.112,-0.5
1.114,0.5
1.116,-0.2
1.118,-0.2
1.12,-0.2
1.122,0.4
1.124,-0.1
1.1260000000000001,0.4
1.1280000000000001,0.8
1.1300000000000001,0.3
1.1320000000000001,0.3
1.1340000000000001,0.7
1.1360000000000001,0.1
1.1380000000000001,-0.1
1.1400000000000001,-0.3
1.1420000000000001,0.2
1.1440000000000001,-0.2
1.1460000000000001,-0.4
1.1480000000000001,0.3
1.1500000000000001,0.4
1.1520000000000001,0.4
1.154,0.3
1.156,-0.1
1.158,-0.8
1.16,-0.8
1.162,-0.7
1.164,-0.8
1.166,-0.2
1.168,-0.2
1.17,0.0
1.172,0.0
1.174,0.2
1.176,-0.8
1.178,-0.9
1.18,-0.7
1.182,-0.6
1.184,-0.9
1.186,-0.8
1.188,0.0
1.19,0.1
1.192,0.0
1.194,0.0
1.196,-0.3
1.198,-0.4
1.2,0.0
1.202,0.4
1.204,-0.8
1.206,-1.2
1.208,-0.4
1.21,-0.4
1.212,-0.4
1.214,-0.4
1.216,-0.8
1.218,-1.4
1.22,-1.5
1.222,-2.1
1.224,-2.5
1.226,-2.4
1.228,-2.0
1.23,-1.5
1.232,0.2
1.234,2.2
1.236,3.7
1.238,5.0
1.24,6.3
1.242,7.8
1.244,8.5
1.246,9.1
1.248,9.0
1.25,7.8
1.252,5.9
1.254,6.9
1.256,6.4
1.258,5.2
1.26,3.7
1.262,1.1
1.264,-2.2
1.266,-3.4
1.268,-2.7
1.27,-2.9
1.272,-2.5
1.274,-2.2
1.276,-2.4
1.278,-2.1
1.28,-2.2
1.282,-2.1
1.284,-1.9
1.286,-1.5
1.288,-1.1
1.29,-0.8
1.292,-0.4
1.294,-0.5
1.296,-0.3
1.298,-0.7
1.3,0.1
1.302,-0.4
1.304,-0.3
1.306,-0.6
1.308,-0.2
1.31,-0.4
1.312,0.3
1.314,0.3
1.316,0.1
1.318,-0.2
1.32,0.1
1.322,-0.4
1.324,-1.0
1.326,0.0
1.328,0.4
1.33,0.3
1.332,0.8
1.334,0.8
1.336,0.8
1.338,0.1
1.34,0.3
1.342,0.0
1.344,0.0
1.346,0.3
1.348,0.4
1.35,-0.1
1.352,0.6
1.354,1.0
1.356,1.0
1.358,0.3
1.36,0.2
1.362,-0.1
1.364,0.2
1.366,0.1
1.368,0.3
1.37,0.0
1.372,1.4
1.374,1.2
1.3760000000000001,0.3
1.3780000000000001,0.0
1.3800000000000001,0.3
1.3820000000000001,-0.4
1.3840000000000001,-0.3
1.3860000000000001,0.2
1.3880000000000001,0.2
1.3900000000000001,0.0
1.3920000000000001,1.1
1.3940000000000001,0.6
1.3960000000000001,0.9
1.3980000000000001,0.7
1.4000000000000001,1.0
1.4020000000000001,0.2
1.4040000000000001,0.3
1.4060000000000001,0.7
1.408,1.1
1.41,0.5
1.412,1.4
1.414,1.7
1.416,1.2
1.418,1.2
1.42,1.6
1.422,0.7
1.424,0.8
1.426,1.1
1.428,1.6
1.43,1.8
1.432,2.5
1.434,2.6
1.436,1.9
1.438,2.1
1.44,3.0
1.442,2.0
1.444,2.0
1.446,2.0
1.448,2.6
1.45,2.6
1.452,2.6
1.454,2.9
1.456,3.0
1.458,2.9
1.46,3.2
1.462,3.5
1.464,3.7
1.466,3.9
1.468,3.9
1.47,3.8
1.472,4.0
1.474,3.8
1.476,4.4
1.478,4.3
1.48,4.3
1.482,4.0
1.484,4.4
1.486,4.4
1.488,4.6
1.49,4.6
1.492,5.0
1.494,5.1
1.496,5.0
1.498,4.6
1.5,4.3
1.502,4.4
1.504,4.4
1.506,4.4
1.508,4.6
1.51,4.8
1.512,4.6
1.514,3.9
1.516,4.1
1.518,3.9
1.52,3.8
1.522,3.5
1.524,3.4
1.526,2.8
1.528,2.7
1.53,2.6
1.532,1.7
1.534,1.8
1.536,1.3
1.538,1.8
1.54,0.9
1.542,0.9
1.544,0.9
1.546,0.9
1.548,0.7
1.55,1.1
1.552,0.9
1.554,0.5
1.556,0.1
1.558,0.4
1.56,-0.4
1.562,-0.8
1.564,-0.1
1.566,0.3
1.568,0.0
1.57,0.2
1.572,-0.1
1.574,-0.2
1.576,-0.5
1.578,-0.4
1.58,-1.0
1.582,-0.9
1.584,-0.7
1.586,-0.6
1.588,-0.4
1.59,-0.4
1.592,-0.2
1.594,0.2
1.596,-1.0
1.598,-0.8
1.6,-1.1
1.602,-0.9
1.604,-0.2
1.606,-0.2
1.608,-0.7
1.61,0.6
1.612,0.5
1.614,0.1
1.616,-0.6
1.618,-0.6
1.62,-1.4
1.622,-1.2
1.624,-0.4
1.6260000000000001,-0.4
1.6280000000000001,-0.6
1.6300000000000001,0.3
1.6320000000000001,0.4
1.6340000000000001,-0.1
1.6360000000000001,-0.1
1.6380000000000001,-0.1
1.6400000000000001,-0.8
1.6420000000000001,-0.7
1.6440000000000001,-0.3
1.6460000000000001,-0.4
1.6480000000000001,-0.5
1.6500000000000001,0.2
1.6520000000000001,-0.1
1.6540000000000001,-0.1
1.6560000000000001,-0.7
1.6580000000000001,-0.4
1.6600000000000001,-0.5
1.6620000000000001,-0.5
1.6640000000000001,-0.5
1.666,-0.2
1.668,-0.5
1.67,0.3
1.672,0.4
1.674,0.1
1.676,-0.2
1.678,-0.1
1.68,-0.9
1.682,-0.8
1.684,0.1
1.686,-0.1
1.688,0.1
1.69,0.8
1.692,0.8
1.694,-0.2
1.696,0.1
1.698,-0.2
1.7,-0.9
1.702,-0.6
1.704,-0.5
1.706,-0.4
1.708,-0.4
1.71,0.0
1.712,0.4
1.714,0.6
1.716,-0.2
1.718,-0.1
1.72,-0.7
1.722,-0.5
1.724,0.0
1.726,0.0
1.728,0.3
1.73,0.4
1.732,0.5
1.734,0.0
1.736,-0.3
1.738,-0.2
1.74,-1.1
1.742,-0.8
1.744,-0.3
1.746,-0.1
1.748,-0.1
1.75,0.0
1.752,0.1
1.754,0.0
1.756,0.0
1.758,-0.1
1.76,-0.1
1.762,-0.1
1.764,0.3
1.766,0.2
1.768,0.3
1.77,0.3
1.772,-0.2
1.774,-0.7
1.776,-0.7
1.778,-0.5
1.78,-0.1
1.782,-0.1
1.784,0.0
1.786,-0.3
1.788,-0.1
1.79,-0.1
1.792,-0.4
1.794,-0.4
1.796,-0.2
1.798,-0.1
1.8,-0.4
1.802,-0.3
1.804,-0.3
1.806,-0.1
1.808,0.4
1.81,-0.1
1.812,-0.6
1.814,-0.4
1.816,-0.4
1.818,-0.4
1.82,-0.7
1.822,-0.1
1.824,-0.1
1.826,-0.6
1.828,0.3
1.83,0.2
1.832,-0.2
1.834,-0.4
1.836,0.4
1.838,-0.2
1.84,0.0
1.842,0.2
1.844,-0.3
1.846,-0.3
1.848,0.4
1.85,0.3
1.852,-0.9
1.854,-0.6
1.856,-0.2
1.858,-0.6
1.86,-0.6
1.862,-0.4
1.864,-0.2
1.866,0.1
1.868,1.3
1.87,0.4
1.872,0.4
1.874,-0.2
1.8760000000000001,0.0
1.8780000000000001,-0.4
1.8800000000000001,-0.6
1.8820000000000001,-0.2
1.8840000000000001,0.0
1.8860000000000001,-0.1
1.8880000000000001,0.4
1.8900000000000001,0.0
1.8920000000000001,-0.2
1.8940000000000001,-0.1
1.8960000000000001,0.8
1.8980000000000001,-0.1
1.9000000000000001,-0.4
1.9020000000000001,-0.3
1.9040000000000001,-0.1
1.9060000000000001,-0.3
1.9080000000000001,0.8
1.9100000000000001,0.0
1.9120000000000001,0.0
1.9140000000000001,-0.2
1.9160000000000001,0.4
1.9180000000000001,0.0
1.92,-0.5
1.922,-0.2
1.924,-0.3
1.926,0.0
1.928,-0.1
1.93,-0.4
1.932,0.0
1.934,-0.8
1.936,0.1
1.938,-0.4
1.94,-0.5
1.942,-0.1
1.944,-0.7
1.946,-0.2
1.948,0.4
1.95,0.3
1.952,-0.1
1.954,0.1
1.956,0.1
1.958,-0.4
1.96,0.2
1.962,0.3
1.964,0.2
1.966,0.2
1.968,0.9
1.97,0.2
1.972,0.6
1.974,0.1
1.976,0.4
1.978,0.2
1.98,0.3
1.982,0.3
1.984,1.0
1.986,0.8
1.988,0.8
1.99,0.7
1.992,0.4
1.994,0.6
1.996,0.7
1.998,0.4
2.0,0.1
2.0020000000000002,0.2
2.004,0.2
2.0060000000000002,0.2
2.008,1.0
2.0100000000000002,0.7
2.012,0.7
2.0140000000000002,0.2
2.016,0.0
2.0180000000000002,-0.7
2.02,-0.3
2.0220000000000002,-0.3
2.024,0.2
2.0260000000000002,0.0
2.028,0.1
2.0300000000000002,-0.4
2.032,-0.6
2.0340000000000003,-0.1
2.036,-0.3
2.0380000000000003,-0.6
2.04,-0.4
2.0420000000000003,0.1
2.044,-0.6
2.0460000000000003,-0.6
2.048,-0.4
2.05,-0.1
2.052,-0.4
2.054,-0.1
2.056,-0.4
2.058,-0.9
2.06,-0.7
2.062,-0.6
2.064,-0.4
2.066,-0.7
2.068,-0.4
2.07,-0.7
2.072,-0.4
2.074,-0.5
2.076,-0.1
2.078,-0.6
2.08,-0.4
2.082,-0.8
2.084,-0.4
2.086,-0.6
2.088,-0.5
2.09,-0.7
2.092,-1.5
2.094,-1.5
2.096,-2.1
2.098,-2.2
2.1,-1.9
2.102,-0.7
2.104,-0.3
2.106,1.0
2.108,2.6
2.11,4.1
2.112,5.1
2.114,6.5
2.116,7.9
2.118,8.8
2.12,9.4
2.122,8.1
2.124,6.6
2.126,6.5
2.128,6.4
2.13,5.5
2.132,3.2
2.134,1.9
2.136,-1.1
2.138,-3.9
2.14,-3.7
2.142,-3.0
2.144,-2.8
2.146,-2.1
2.148,-2.4
2.15,-2.5
2.152,-2.4
2.154,-1.8
2.156,-2.6
2.158,-2.4
2.16,-2.1
2.162,-1.4
2.164,-0.8
2.166,0.4
2.168,0.0
2.17,0.0
2.172,-0.1
2.174,0.2
2.176,-0.5
2.178,-0.6
2.18,-0.6
2.182,-0.3
2.184,-0.7
2.186,0.3
2.188,0.3
2.19,-0.1
2.192,-0.1
2.194,0.4
2.196,-0.4
2.198,0.0
2.2,0.1
2.202,-0.2
2.204,-0.5
2.206,0.6
2.208,0.6
2.21,0.1
2.212,-0.5
2.214,0.1
2.216,-0.5
2.218,-0.7
2.22,-0.2
2.222,0.2
2.224,0.1
2.226,0.6
2.228,0.9
2.23,1.0
2.232,0.5
2.234,0.1
2.236,-0.5
2.238,-0.3
2.24,-0.1
2.242,0.4
2.244,0.6
2.246,0.7
2.248,0.8
2.25,0.1
2.2520000000000002,-0.1
2.254,1.0
2.2560000000000002,0.2
2.258,0.2
2.2600000000000002,0.5
2.262,0.6
2.2640000000000002,0.4
2.266,0.8
2.2680000000000002,0.4
2.27,0.4
2.2720000000000002,0.4
2.274,1.0
2.2760000000000002,0.2
2.278,0.2
2.2800000000000002,0.3
2.282,0.7
2.2840000000000003,0.7
2.286,1.2
2.2880000000000003,0.9
2.29,0.9
2.2920000000000003,1.3
2.294,1.6
2.2960000000000003,0.7
2.298,0.7
2.3000000000000003,1.0
2.302,1.6
2.3040000000000003,1.3
2.306,2.0
2.308,1.5
2.31,2.1
2.312,1.8
2.314,1.8
2.316,2.0
2.318,1.8
2.32,1.9
2.322,2.2
2.324,2.5
2.326,2.3
2.328,2.7
2.33,2.7
2.332,3.3
2.334,3.2
2.336,2.9
2.338,2.9
2.34,3.2
2.342,3.3
2.344,3.3
2.346,4.3
2.348,4.0
2.35,3.9
2.352,4.4
2.354,4.3
2.356,4.7
2.358,4.4
2.36,4.3
2.362,4.3
2.364,4.4
2.366,4.1
2.368,4.2
2.37,3.8
2.372,4.7
2.374,4.3
2.376,4.1
2.378,3.9
2.38,3.9
2.382,4.0
2.384,4.4
2.386,3.9
2.388,3.7
2.39,3.3
2.392,3.1
2.394,3.0
2.396,2.8
2.398,2.4
2.4,2.5
2.402,2.1
2.404,2.1
2.406,1.6
2.408,0.9
2.41,0.7
2.412,0.8
2.414,0.3
2.416,0.4
2.418,0.5
2.42,0.7
2.422,0.1
2.424,0.6
2.426,0.0
2.428,-0.2
2.43,-0.2
2.432,-0.3
2.434,-1.4
2.436,-1.1
2.438,-1.2
2.44,-1.3
2.442,-1.6
2.444,-0.4
2.446,-0.4
2.448,-1.1
2.45,-1.1
2.452,-0.9
2.454,-1.6
2.456,-1.6
2.458,-1.6
2.46,-1.7
2.462,-1.7
2.464,-1.3
2.466,-1.3
2.468,-1.2
2.47,-1.8
2.472,-1.5
2.474,-2.2
2.476,-1.6
2.478,-1.7
2.48,-1.2
2.482,-1.3
2.484,-0.7
2.486,-0.7
2.488,-0.9
2.49,-1.7
2.492,-1.7
2.494,-2.1
2.496,-1.8
2.498,-1.8
2.5,-1.8
2.5020000000000002,-2.1
2.504,-1.3
2.5060000000000002,-1.4
2.508,-1.2
2.5100000000000002,-1.4
2.512,-1.5
2.5140000000000002,-1.7
2.516,-1.5
2.5180000000000002,-1.5
2.52,-1.4
2.5220000000000002,-2.0
2.524,-1.8
2.5260000000000002,-1.4
2.528,-1.6
2.5300000000000002,-1.5
2.532,-1.7
2.5340000000000003,-2.2
2.536,-1.8
2.5380000000000003,-1.1
2.54,-1.1
2.5420000000000003,-1.6
2.544,-1.0
2.5460000000000003,-1.2
2.548,-1.3
2.5500000000000003,-1.6
2.552,-1.6
2.5540000000000003,-2.2
2.556,-1.8
2.5580000000000003,-1.5
2.56,-1.4
2.562,-1.0
2.564,-0.6
2.566,-1.0
2.568,-1.5
2.57,-1.7
2.572,-1.2
2.574,-1.6
2.576,-1.8
2.578,-1.3
2.58,-1.2
2.582,-1.2
2.584,-1.2
2.586,-1.7
2.588,-1.4
2.59,-1.6
2.592,-1.3
2.594,-1.6
2.596,-1.6
2.598,-1.0
2.6,-1.1
2.602,-1.1
2.604,-1.0
2.606,-1.6
2.608,-1.3
2.61,-1.5
2.612,-1.3
2.614,-1.2
2.616,-1.3
2.618,-1.0
2.62,-1.3
2.622,-1.2
2.624,-1.0
2.626,-1.4
2.628,-1.7
2.63,-1.9
2.632,-1.4
2.634,-1.4
2.636,-1.2
2.638,-1.2
2.64,-1.3
2.642,-1.1
2.644,-1.5
2.646,-1.2
2.648,-1.2
2.65,-1.4
2.652,-2.2
2.654,-2.0
2.656,-1.9
2.658,-1.0
2.66,-1.4
2.662,-1.3
2.664,-0.9
2.666,-1.3
2.668,-1.5
2.67,-1.4
2.672,-2.0
2.674,-2.0
2.676,-1.9
2.678,-1.8
2.68,-1.6
2.682,-1.3
2.684,-1.3
2.686,-1.8
2.688,-1.9
2.69,-1.5
2.692,-1.8
2.694,-1.7
2.696,-1.9
2.698,-1.6
2.7,-2.2
2.702,-1.4
2.704,-1.1
2.706,-1.9
2.708,-1.9
2.71,-1.7
2.712,-2.2
2.714,-1.7
2.716,-1.7
2.718,-1.5
2.72,-2.0
2.722,-1.7
2.724,-1.5
2.726,-1.7
2.728,-1.7
2.73,-1.6
2.732,-2.3
2.734,-2.0
2.736,-1.5
2.738,-1.2
2.74,-1.6
2.742,-1.2
2.744,-1.5
2.746,-2.1
2.748,-1.5
2.75,-1.4
2.7520000000000002,-2.0
2.754,-2.2
2.7560000000000002,-2.2
2.758,-1.8
2.7600000000000002,-1.6
2.762,-1.2
2.7640000000000002,-1.3
2.766,-2.1
2.7680000000000002,-2.5
2.77,-2.0
2.7720000000000002,-2.4
2.774,-1.7
2.7760000000000002,-1.2
2.778,-0.7
2.7800000000000002,-1.8
2.782,-1.3
2.7840000000000003,-1.7
2.786,-1.7
2.7880000000000003,-1.7
2.79,-0.6
2.7920000000000003,-1.7
2.794,-1.2
2.7960000000000003,-1.3
2.798,-1.2
2.8000000000000003,-1.4
2.802,-0.9
2.8040000000000003,-1.0
2.806,-0.9
2.8080000000000003,-0.8
2.81,-0.8
2.8120000000000003,-1.2
2.814,-1.5
2.816,-1.5
2.818,-0.4
2.82,-0.4
2.822,-0.4
2.824,-0.8
2.826,-1.6
2.828,-1.8
2.83,-1.3
2.832,-1.5
2.834,-1.2
2.836,-1.7
2.838,-1.1
2.84,-1.4
2.842,-1.0
2.844,-1.3
2.846,-1.8
2.848,-2.2
2.85,-2.6
2.852,-2.5
2.854,-2.5
2.856,-2.2
2.858,-1.6
2.86,-1.7
2.862,-1.4
2.864,-1.6
2.866,-2.3
2.868,-2.6
2.87,-2.4
2.872,-2.7
2.874,-2.7
2.876,-2.1
2.878,-2.3
2.88,-2.1
2.882,-1.7
2.884,-1.9
2.886,-2.6
2.888,-2.5
2.89,-2.6
2.892,-3.2
2.894,-3.0
2.896,-2.5
2.898,-2.4
2.9,-2.1
2.902,-2.1
2.904,-2.6
2.906,-2.9
2.908,-2.9
2.91,-3.1
2.912,-2.5
2.914,-2.4
2.916,-2.7
2.918,-2.2
2.92,-1.8
2.922,-2.3
2.924,-2.8
2.926,-3.2
2.928,-3.3
2.93,-3.9
2.932,-4.4
2.934,-4.4
2.936,-3.9
2.938,-3.1
2.94,-2.1
2.942,-0.7
2.944,1.0
2.946,1.7
2.948,3.4
2.95,4.8
2.952,5.9
2.954,5.9
2.956,5.4
2.958,4.4
2.96,3.6
2.962,2.7
2.964,2.5
2.966,1.5
2.968,0.1
2.97,-2.3
2.972,-4.4
2.974,-5.7
2.976,-5.2
2.978,-5.4
2.98,-4.2
2.982,-4.5
2.984,-5.1
2.986,-5.1
2.988,-5.3
2.99,-5.0
2.992,-4.9
2.994,-4.5
2.996,-3.9
2.998,-4.0
3.0,-3.5
3.0020000000000002,-3.1
3.004,-2.9
3.0060000000000002,-2.9
3.008,-2.5
3.0100000000000002,-3.6
3.012,-3.0
3.0140000000000002,-2.8
3.016,-2.4
3.0180000000000002,-2.7
3.02,-1.7
3.0220000000000002,-2.4
3.024,-2.0
3.0260000000000002,-2.4
3.028,-2.2
3.0300000000000002,-3.0
3.032,-3.1
3.0340000000000003,-2.7
3.036,-2.1
3.0380000000000003,-2.1
3.04,-1.8
3.0420000000000003,-1.9
3.044,-2.4
3.0460000000000003,-2.2
3.048,-1.7
3.0500000000000003,-2.5
3.052,-2.6
3.0540000000000003,-2.1
3.056,-2.1
3.0580000000000003,-2.4
3.06,-1.9
3.0620000000000003,-1.9
3.064,-2.2
3.0660000000000003,-2.8
3.068,-2.7
3.0700000000000003,-3.1
3.072,-2.8
3.074,-2.1
3.076,-1.3
3.078,-1.9
3.08,-1.5
3.082,-2.2
3.084,-1.8
3.086,-2.3
3.088,-1.8
3.09,-2.2
3.092,-2.4
3.094,-2.5
3.096,-1.3
3.098,-1.3
3.1,-0.8
3.102,-1.6
3.104,-1.8
3.106,-2.2
3.108,-1.9
3.11,-2.3
3.112,-1.9
3.114,-1.8
3.116,-1.5
3.118,-1.6
3.12,-0.9
3.122,-0.9
3.124,-1.1
3.126,-1.1
3.128,-1.5
3.13,-1.3
3.132,-1.4
3.134,-1.1
3.136,-0.9
3.138,-1.2
3.14,-0.8
3.142,-0.8
3.144,-1.0
3.146,-0.9
3.148,-0.9
3.15,-0.8
3.152,-0.2
3.154,0.0
3.156,0.3
3.158,-0.3
3.16,0.3
3.162,0.5
3.164,0.0
3.166,0.1
3.168,0.3
3.17,0.3
3.172,0.6
3.174,0.9
3.176,0.6
3.178,1.3
3.18,1.6
3.182,1.7
3.184,1.7
3.186,1.5
3.188,1.8
3.19,1.3
3.192,2.0
3.194,2.4
3.196,2.0
3.198,1.8
3.2,2.5
3.202,2.2
3.204,1.7
3.206,1.7
3.208,1.3
3.21,0.9
3.212,1.3
3.214,1.4
3.216,1.4
3.218,1.8
3.22,1.8
3.222,1.8
3.224,1.6
3.226,1.1
3.228,0.1
3.23,0.1
3.232,0.0
3.234,0.1
3.236,-0.6
3.238,-0.4
3.24,-0.7
3.242,-1.3
3.244,-1.2
3.246,-1.2
3.248,-1.6
3.25,-1.9
3.2520000000000002,-1.8
3.254,-1.3
3.2560000000000002,-1.9
3.258,-1.8
3.2600000000000002,-2.0
3.262,-2.4
3.2640000000000002,-2.8
3.266,-2.3
3.2680000000000002,-3.2
3.27,-3.1
3.2720000000000002,-3.1
3.274,-3.4
3.2760000000000002,-3.6
3.278,-2.9
3.2800000000000002,-2.7
3.282,-2.7
3.2840000000000003,-3.1
3.286,-3.2
3.2880000000000003,-4.3
3.29,-4.3
3.2920000000000003,-4.3
3.294,-3.9
3.2960000000000003,-4.0
3.298,-2.8
3.3000000000000003,-3.8
3.302,-3.8
3.3040000000000003,-3.8
3.306,-3.8
3.3080000000000003,-4.6
3.31,-4.6
3.3120000000000003,-4.2
3.314,-4.2
3.3160000000000003,-4.2
3.318,-3.5
3.3200000000000003,-3.9
3.322,-3.9
3.3240000000000003,-3.9
3.326,-3.7
3.3280000000000003,-5.0
3.33,-5.0
3.332,-4.3
3.334,-4.1
3.336,-4.7
3.338,-3.9
3.34,-3.9
3.342,-3.8
3.344,-4.1
3.346,-4.0
3.348,-4.7
3.35,-4.9
3.352,-5.0
3.354,-4.2
3.356,-4.2
3.358,-3.8
3.36,-3.8
3.362,-4.4
3.364,-5.0
3.366,-4.5
3.368,-4.8
3.37,-4.6
3.372,-4.0
3.374,-3.6
3.376,-4.4
3.378,-3.8
3.38,-3.8
3.382,-4.5
3.384,-4.7
3.386,-4.4
3.388,-4.8
3.39,-4.7
3.392,-4.4
3.394,-4.1
3.396,-4.3
3.398,-3.5
3.4,-4.1
3.402,-3.9
3.404,-4.0
3.406,-3.9
3.408,-4.2
3.41,-4.3
3.412,-4.0
3.414,-4.0
3.416,-4.1
3.418,-3.1
3.42,-3.9
3.422,-4.0
3.424,-4.1
3.426,-3.9
3.428,-4.2
3.43,-3.8
3.432,-4.1
3.434,-4.0
3.436,-3.9
3.438,-3.2
3.44,-3.9
3.442,-4.1
3.444,-4.3
3.446,-4.6
3.448,-4.9
3.45,-4.1
3.452,-4.3
3.454,-4.1
3.456,-4.2
3.458,-4.3
3.46,-4.5
3.462,-4.5
3.464,-4.5
3.466,-4.4
3.468,-5.0
3.47,-4.7
3.472,-4.4
3.474,-4.3
3.476,-4.1
3.478,-3.9
3.48,-4.0
3.482,-3.9
3.484,-4.4
3.486,-4.3
3.488,-4.3
3.49,-4.7
3.492,-4.5
3.494,-4.7
3.496,-4.7
3.498,-3.6
3.5,-3.7
3.5020000000000002,-4.2
3.504,-3.9
3.5060000000000002,-4.6
3.508,-5.1
3.5100000000000002,-5.0
3.512,-5.0
3.5140000000000002,-4.8
3.516,-4.2
3.5180000000000002,-4.7
3.52,-4.7
3.5220000000000002,-4.7
3.524,-4.6
3.5260000000000002,-5.0
3.528,-5.0
3.5300000000000002,-4.7
3.532,-4.7
3.5340000000000003,-5.3
3.536,-4.5
3.5380000000000003,-4.6
3.54,-4.6
3.5420000000000003,-4.5
3.544,-4.9
3.5460000000000003,-5.4
3.548,-4.8
3.5500000000000003,-4.4
3.552,-4.0
3.5540000000000003,-4.5
3.556,-3.9
3.5580000000000003,-4.2
3.56,-4.4
3.5620000000000003,-4.5
3.564,-4.0
3.5660000000000003,-4.3
3.568,-4.6
3.5700000000000003,-4.2
3.572,-4.5
3.5740000000000003,-4.6
3.576,-4.0
3.5780000000000003,-3.5
3.58,-3.6
3.5820000000000003,-3.6
3.584,-3.5
3.586,-4.5
3.588,-5.0
3.59,-4.2
3.592,-4.0
3.594,-4.1
3.596,-3.9
3.598,-3.8
3.6,-4.1
3.602,-3.9
3.604,-3.6
3.606,-4.0
3.608,-4.7
3.61,-4.5
3.612,-4.2
3.614,-4.8
3.616,-4.4
3.618,-4.5
3.62,-4.8
3.622,-5.0
3.624,-4.9
3.626,-5.8
3.628,-5.4
3.63,-5.2
3.632,-5.0
3.634,-4.9
3.636,-4.8
3.638,-4.6
3.64,-4.5
3.642,-4.9
3.644,-5.0
3.646,-5.3
3.648,-5.0
3.65,-4.8
3.652,-4.8
3.654,-5.2
3.656,-4.9
3.658,-5.0
3.66,-5.1
3.662,-5.0
3.664,-4.8
3.666,-5.2
3.668,-5.2
3.67,-5.4
3.672,-5.1
3.674,-5.1
3.676,-4.8
3.678,-5.1
3.68,-5.8
3.682,-5.3
3.684,-5.3
3.686,-5.3
3.688,-5.2
3.69,-5.3
3.692,-4.8
3.694,-5.0
3.696,-4.9
3.698,-4.9
3.7,-5.4
3.702,-5.8
3.704,-5.8
3.706,-6.7
3.708,-6.5
3.71,-6.5
3.712,-6.4
3.714,-6.0
3.716,-6.1
3.718,-5.4
3.72,-4.8
3.722,-3.3
3.724,-2.1
3.726,-1.5
3.728,0.2
3.73,1.9
3.732,3.6
3.734,4.2
3.736,4.3
3.738,3.4
3.74,1.7
3.742,0.3
3.744,-0.2
3.746,-0.6
3.748,-1.9
3.75,-3.3
3.7520000000000002,-5.9
3.754,-7.1
3.7560000000000002,-7.0
3.758,-7.4
3.7600000000000002,-7.4
3.762,-7.8
3.7640000000000002,-7.7
3.766,-7.9
3.7680000000000002,-7.4
3.77,-6.7
3.7720000000000002,-6.2
3.774,-5.5
3.7760000000000002,-5.9
3.778,-5.8
3.7800000000000002,-6.2
3.782,-5.2
3.7840000000000003,-5.2
3.786,-5.0
3.7880000000000003,-5.1
3.79,-4.6
3.7920000000000003,-4.5
3.794,-4.1
3.7960000000000003,-3.6
3.798,-4.0
3.8000000000000003,-4.1
3.802,-3.6
3.8040000000000003,-4.6
3.806,-4.7
3.8080000000000003,-4.2
3.81,-3.9
3.8120000000000003,-3.9
3.814,-3.5
3.8160000000000003,-3.5
3.818,-4.0
3.8200000000000003,-4.0
3.822,-3.9
3.8240000000000003,-4.9
3.826,-4.5
3.8280000000000003,-4.4
3.83,-4.2
3.8320000000000003,-4.2
3.834,-3.5
3.8360000000000003,-3.5
3.838,-3.8
3.84,-3.8
3.842,-3.8
3.844,-4.5
3.846,-4.6
3.848,-3.7
3.85,-3.8
3.852,-4.0
3.854,-3.5
3.856,-3.7
3.858,-3.5
3.86,-3.8
3.862,-3.5
3.864,-4.1
3.866,-4.1
3.868,-4.2
3.87,-3.5
3.872,-3.5
3.874,-3.5
3.876,-3.4
3.878,-3.6
3.88,-4.2
3.882,-3.9
3.884,-4.0
3.886,-3.5
3.888,-2.9
3.89,-2.8
3.892,-3.4
3.894,-2.8
3.896,-3.0
3.898,-3.0
3.9,-3.3
3.902,-2.9
3.904,-2.7
3.906,-2.9
3.908,-3.0
3.91,-2.5
3.912,-2.8
3.914,-1.9
3.916,-2.0
3.918,-2.0
3.92,-2.1
3.922,-1.8
3.924,-2.6
3.926,-2.2
3.928,-2.2
3.93,-2.3
3.932,-1.8
3.934,-1.3
3.936,-1.4
3.938,-1.3
3.94,-1.1
3.942,-1.1
3.944,-1.7
3.946,-0.9
3.948,-0.7
3.95,-0.9
3.952,-0.6
3.954,-0.1
3.956,0.2
3.958,-0.9
3.96,-0.6
3.962,0.2
3.964,-0.5
3.966,0.1
3.968,0.3
3.97,0.8
3.972,0.8
3.974,1.1
3.976,0.7
3.978,0.3
3.98,0.4
3.982,0.4
3.984,0.4
3.986,0.6
3.988,0.5
3.99,0.3
3.992,0.3
3.994,1.2
3.996,1.1
3.998,0.1
4.0,0.1
4.002,-0.5
4.0040000000000004,-1.0
4.006,-0.9
4.008,-1.0
4.01,-1.4
4.0120000000000005,-1.2
4.014,-1.1
4.016,-1.2
4.018,-1.6
4.0200000000000005,-1.6
4.022,-2.6
4.024,-3.1
4.026,-2.5
4.0280000000000005,-2.6
4.03,-3.2
4.032,-3.1
4.034,-3.6
4.0360000000000005,-4.0
4.038,-3.4
4.04,-3.9
4.042,-4.2
4.0440000000000005,-4.2
4.046,-4.3
4.048,-4.3
4.05,-4.6
4.0520000000000005,-4.3
4.054,-4.6
4.056,-4.8
4.058,-4.6
4.0600000000000005,-4.7
4.062,-4.9
4.064,-4.9
4.066,-5.3
4.0680000000000005,-5.0
4.07,-4.8
4.072,-4.8
4.074,-5.8
4.0760000000000005,-5.2
4.078,-5.2
4.08,-5.1
4.082,-5.4
4.0840000000000005,-5.7
4.086,-5.0
4.088,-4.9
4.09,-4.8
4.0920000000000005,-4.4
4.094,-4.4
4.096,-5.0
4.098,-5.3
4.1,-5.1
4.102,-5.3
4.104,-5.2
4.106,-5.0
4.108,-5.0
4.11,-4.9
4.112,-4.9
4.114,-5.4
4.116,-5.2
4.118,-5.1
4.12,-5.2
4.122,-5.7
4.124,-5.7
4.126,-4.8
4.128,-4.9
4.13,-4.8
4.132,-4.3
4.134,-5.1
4.136,-5.4
4.138,-5.4
4.14,-5.4
4.142,-5.6
4.144,-5.0
4.146,-4.7
4.148,-4.9
4.15,-5.2
4.152,-4.7
4.154,-5.1
4.156,-5.1
4.158,-5.3
4.16,-4.8
4.162,-5.4
4.164,-5.2
4.166,-4.8
4.168,-4.6
4.17,-4.9
4.172,-4.3
4.174,-4.3
4.176,-4.4
4.178,-4.7
4.18,-4.4
4.182,-5.1
4.184,-4.7
4.186,-4.7
4.188,-4.0
4.19,-4.5
4.192,-4.5
4.194,-4.5
4.196,-4.7
4.198,-4.6
4.2,-4.4
4.202,-4.9
4.204,-5.1
4.206,-5.1
4.208,-4.6
4.21,-4.8
4.212,-4.4
4.214,-4.4
4.216,-4.5
4.218,-5.0
4.22,-4.6
4.222,-4.9
4.224,-4.7
4.226,-4.2
4.228,-4.3
4.23,-4.0
4.232,-3.7
4.234,-4.0
4.236,-4.6
4.238,-4.7
4.24,-4.7
4.242,-5.2
4.244,-4.9
4.246,-4.6
4.248,-4.6
4.25,-4.7
4.252,-3.9
4.2540000000000004,-4.5
4.256,-4.9
4.258,-4.6
4.26,-4.7
4.2620000000000005,-4.7
4.264,-4.8
4.266,-4.5
4.268,-4.4
4.2700000000000005,-4.4
4.272,-4.2
4.274,-4.5
4.276,-4.6
4.2780000000000005,-4.7
4.28,-4.6
4.282,-5.0
4.284,-4.6
4.2860000000000005,-4.7
4.288,-4.7
4.29,-4.3
4.292,-4.1
4.2940000000000005,-4.3
4.296,-4.3
4.298,-4.6
4.3,-4.6
4.3020000000000005,-4.6
4.304,-4.6
4.306,-4.0
4.308,-4.3
4.3100000000000005,-4.5
4.312,-4.1
4.314,-3.9
4.316,-5.0
4.3180000000000005,-5.0
4.32,-5.0
4.322,-5.0
4.324,-4.9
4.3260000000000005,-4.8
4.328,-4.4
4.33,-4.4
4.332,-3.8
4.3340000000000005,-3.7
4.336,-4.3
4.338,-4.6
4.34,-4.9
4.3420000000000005,-5.2
4.344,-4.9
4.346,-4.2
4.348,-4.3
4.3500000000000005,-4.3
4.352,-3.5
4.354,-3.8
4.356,-3.9
4.358,-3.8
4.36,-4.8
4.362,-5.0
4.364,-5.0
4.366,-4.3
4.368,-4.3
4.37,-4.3
4.372,-4.2
4.374,-4.4
4.376,-4.2
4.378,-4.5
4.38,-4.8
4.382,-4.8
4.384,-4.4
4.386,-4.1
4.388,-4.1
4.39,-3.7
4.392,-3.8
4.394,-4.0
4.396,-3.9
4.398,-3.5
4.4,-4.1
4.402,-4.2
4.404,-3.7
4.406,-3.4
4.408,-4.0
4.41,-3.4
4.412,-3.4
4.414,-3.9
4.416,-4.0
4.418,-3.8
4.42,-4.4
4.422,-3.8
4.424,-3.7
4.426,-3.5
4.428,-4.1
4.43,-3.8
4.432,-4.0
4.434,-3.8
4.436,-4.3
4.438,-4.4
4.44,-4.9
4.442,-4.5
4.444,-4.3
4.446,-4.2
4.448,-4.6
4.45,-4.3
4.452,-4.3
4.454,-4.3
4.456,-4.5
4.458,-4.0
4.46,-4.5
4.462,-4.3
4.464,-4.6
4.466,-4.7
4.468,-4.3
4.47,-4.3
4.472,-4.3
4.474,-4.6
4.476,-4.5
4.478,-4.5
4.48,-5.2
4.482,-4.8
4.484,-4.2
4.486,-4.6
4.488,-4.7
4.49,-3.6
4.492,-4.5
4.494,-4.7
4.496,-4.5
4.498,-4.8
4.5,-5.2
4.502,-4.5
4.5040000000000004,-4.3
4.506,-4.2
4.508,-4.3
4.51,-3.8
4.5120000000000005,-4.1
4.514,-4.0
4.516,-5.1
4.518,-5.5
4.5200000000000005,-6.3
4.522,-6.0
4.524,-6.2
4.526,-5.8
4.5280000000000005,-5.8
4.53,-5.0
4.532,-4.4
4.534,-3.6
4.5360000000000005,-1.8
4.538,-0.4
4.54,0.9
4.542,2.4
4.5440000000000005,4.2
4.546,5.5
4.548,5.9
4.55,5.5
4.5520000000000005,4.1
4.554,1.3
4.556,1.2
4.558,1.2
4.5600000000000005,-0.7
4.562,-2.1
4.564,-3.9
4.566,-5.6
4.5680000000000005,-6.0
4.57,-5.9
4.572,-6.5
4.574,-6.0
4.5760000000000005,-6.4
4.578,-6.8
4.58,-6.8
4.582,-6.3
4.5840000000000005,-5.6
4.586,-4.5
4.588,-4.0
4.59,-4.2
4.5920000000000005,-4.4
4.594,-4.4
4.596,-4.4
4.598,-4.6
4.6000000000000005,-4.0
4.602,-3.9
4.604,-3.6
4.606,-3.3
4.6080000000000005,-3.7
4.61,-3.7
4.612,-3.7
4.614,-4.1
4.616,-4.5
4.618,-4.2
4.62,-3.7
4.622,-3.7
4.624,-2.8
4.626,-2.7
4.628,-2.8
4.63,-3.3
4.632,-3.3
4.634,-3.9
4.636,-3.7
4.638,-3.7
4.64,-3.3
4.642,-3.3
4.644,-3.1
4.646,-3.1
4.648,-3.6
4.65,-3.2
4.652,-2.8
4.654,-3.1
4.656,-3.2
4.658,-3.2
4.66,-3.2
4.662,-3.8
4.664,-2.5
4.666,-2.4
4.668,-2.4
4.67,-3.1
4.672,-2.7
4.674,-3.5
4.676,-3.3
4.678,-2.8
4.68,-2.3
4.682,-2.5
4.684,-1.9
4.686,-1.8
4.688,-2.4
4.69,-3.2
4.692,-2.5
4.694,-2.5
4.696,-2.6
4.698,-2.0
4.7,-2.2
4.702,-2.1
4.704,-1.4
4.706,-1.7
4.708,-2.5
4.71,-2.9
4.712,-2.0
4.714,-2.8
4.716,-2.2
4.718,-2.2
4.72,-1.4
4.722,-1.5
4.724,-1.0
4.726,-0.9
4.728,-1.1
4.73,-1.0
4.732,-0.2
4.734,-1.1
4.736,-0.7
4.738,-0.7
4.74,-0.4
4.742,-0.3
4.744,0.1
4.746,-0.1
4.748,0.3
4.75,0.0
4.752,0.0
4.7540000000000004,-0.6
4.756,0.2
4.758,0.6
4.76,0.6
4.7620000000000005,0.6
4.764,1.0
4.766,0.9
4.768,0.6
4.7700000000000005,0.5
4.772,0.6
4.774,0.4
4.776,0.7
4.7780000000000005,1.0
4.78,1.0
4.782,1.1
4.784,1.4
4.7860000000000005,1.0
4.788,0.7
4.79,0.5
4.792,0.3
4.7940000000000005,-0.3
4.796,-0.2
4.798,-0.7
4.8,-0.7
4.8020000000000005,-0.7
4.804,-0.6
4.806,-1.2
4.808,-1.6
4.8100000000000005,-2.2
4.812,-2.0
4.814,-2.5
4.816,-2.4
4.8180000000000005,-2.4
4.82,-2.3
4.822,-2.3
4.824,-2.2
4.8260000000000005,-2.4
4.828,-2.7
4.83,-3.0
4.832,-3.2
4.8340000000000005,-4.3
4.836,-4.0
4.838,-3.7
4.84,-3.8
4.8420000000000005,-3.8
4.844,-4.0
4.846,-3.6
4.848,-3.8
4.8500000000000005,-4.4
4.852,-3.4
4.854,-3.6
4.856,-4.0
4.8580000000000005,-4.0
4.86,-4.2
4.862,-4.0
4.864,-3.6
4.866,-4.0
4.868,-4.4
4.87,-3.9
4.872,-4.4
4.874,-4.3
4.876,-4.1
4.878,-4.1
4.88,-4.2
4.882,-4.1
4.884,-3.7
4.886,-4.2
4.888,-4.2
4.89,-3.6
4.892,-4.3
4.894,-4.3
4.896,-4.6
4.898,-4.3
4.9,-4.3
4.902,-4.0
4.904,-4.2
4.906,-4.4
4.908,-4.1
4.91,-3.7
4.912,-4.8
4.914,-4.5
4.916,-4.4
4.918,-3.7
4.92,-4.0
4.922,-4.0
4.924,-3.7
4.926,-4.2
4.928,-4.3
4.93,-4.2
4.932,-4.3
4.934,-4.7
4.936,-4.7
4.938,-3.9
4.94,-4.1
4.942,-3.4
4.944,-3.9
4.946,-4.1
4.948,-4.3
4.95,-4.1
4.952,-4.1
4.954,-4.3
4.956,-4.3
4.958,-3.8
4.96,-4.1
4.962,-3.3
4.964,-3.4
4.966,-3.6
4.968,-4.5
4.97,-4.5
4.972,-4.7
4.974,-4.7
4.976,-3.9
4.978,-3.9
4.98,-3.9
4.982,-2.6
4.984,-2.6
4.986,-3.0
4.988,-4.0
4.99,-4.0
4.992,-4.9
4.994,-4.4
4.996,-4.3
4.998,-3.6
5.0,-4.0
5.002,-2.9
5.0040000000000004,-3.0
5.006,-3.5
5.008,-4.0
5.01,-3.9
5.0120000000000005,-4.4
5.014,-4.4
5.016,-4.4
5.018,-4.4
5.0200000000000005,-3.8
5.022,-3.1
5.024,-3.2
5.026,-3.4
5.0280000000000005,-4.0
5.03,-3.9
5.032,-4.3
5.034,-4.1
5.0360000000000005,-4.0
5.038,-3.8
5.04,-3.8
5.042,-3.7
5.0440000000000005,-3.7
5.046,-3.9
5.048,-4.0
5.05,-3.8
5.0520000000000005,-4.5
5.054,-4.1
5.056,-4.3
5.058,-4.3
5.0600000000000005,-4.5
5.062,-3.1
5.064,-3.4
5.066,-4.1
5.0680000000000005,-3.8
5.07,-4.3
5.072,-5.0
5.074,-4.9
5.0760000000000005,-4.5
5.078,-4.3
5.08,-4.3
5.082,-4.2
5.0840000000000005,-3.8
5.086,-3.8
5.088,-4.1
5.09,-3.6
5.0920000000000005,-4.7
5.094,-4.2
5.096,-3.7
5.098,-3.8
5.1000000000000005,-3.8
5.102,-3.1
5.104,-3.6
5.106,-4.4
5.1080000000000005,-4.4
5.11,-4.0
5.112,-4.5
5.114,-4.4
5.1160000000000005,-4.8
5.118,-4.3
5.12,-3.9
5.122,-3.3
5.124,-4.2
5.126,-4.5
5.128,-4.0
5.13,-4.1
5.132,-4.3
5.134,-4.0
5.136,-4.1
5.138,-3.9
5.14,-3.5
5.142,-3.6
5.144,-4.1
5.146,-4.5
5.148,-4.2
5.15,-4.2
5.152,-4.1
5.154,-4.0
5.156,-4.1
5.158,-3.8
5.16,-3.4
5.162,-3.4
5.164,-3.4
5.166,-3.8
5.168,-3.8
5.17,-4.0
5.172,-4.5
5.174,-3.4
5.176,-3.3
5.178,-3.4
5.18,-3.2
5.182,-3.2
5.184,-3.7
5.186,-3.5
5.188,-3.5
5.19,-4.0
5.192,-4.2
5.194,-3.4
5.196,-3.9
5.198,-4.0
5.2,-3.7
5.202,-3.5
5.204,-3.5
5.206,-3.6
5.208,-3.2
5.21,-3.3
5.212,-3.4
5.214,-3.1
5.216,-2.4
5.218,-2.5
5.22,-2.4
5.222,-3.3
5.224,-3.9
5.226,-3.5
5.228,-3.2
5.23,-3.4
5.232,-3.4
5.234,-3.2
5.236,-2.8
5.238,-3.6
5.24,-2.6
5.242,-2.7
5.244,-2.7
5.246,-3.0
5.248,-3.1
5.25,-4.2
5.252,-3.8
5.2540000000000004,-3.3
5.256,-3.3
5.258,-3.4
5.26,-2.9
5.2620000000000005,-3.7
5.264,-3.7
5.266,-4.1
5.268,-4.1
5.2700000000000005,-4.4
5.272,-4.3
5.274,-3.5
5.276,-2.9
5.2780000000000005,-3.6
5.28,-2.7
5.282,-3.4
5.284,-3.4
5.2860000000000005,-3.6
5.288,-3.4
5.29,-4.4
5.292,-3.9
5.2940000000000005,-4.1
5.296,-3.1
5.298,-3.8
5.3,-3.8
5.3020000000000005,-3.4
5.304,-4.0
5.306,-4.7
5.308,-4.0
5.3100000000000005,-4.3
5.312,-4.3
5.314,-4.3
5.316,-3.5
5.3180000000000005,-3.9
5.32,-3.4
5.322,-3.9
5.324,-4.2
5.3260000000000005,-4.6
5.328,-4.2
5.33,-4.6
5.332,-4.6
5.3340000000000005,-4.5
5.336,-4.4
5.338,-4.9
5.34,-4.6
5.3420000000000005,-4.7
5.344,-5.3
5.346,-5.6
5.348,-4.9
5.3500000000000005,-4.5
5.352,-3.2
5.354,-1.8
5.356,-0.1
5.3580000000000005,1.6
5.36,3.8
5.362,5.1
5.364,5.9
5.3660000000000005,6.1
5.368,4.5
5.37,2.8
5.372,1.3
5.3740000000000006,1.6
5.376,1.7
5.378,0.7
5.38,-0.8
5.382,-3.5
5.384,-6.2
5.386,-6.5
5.388,-6.9
5.39,-7.0
5.392,-6.5
5.394,-6.0
5.396,-5.5
5.398,-5.5
5.4,-4.7
5.402,-4.7
5.404,-4.9
5.406,-4.5
5.408,-4.1
5.41,-4.7
5.412,-4.6
5.414,-3.8
5.416,-3.8
5.418,-3.4
5.42,-3.3
5.422,-3.3
5.424,-2.9
5.426,-3.3
5.428,-3.5
5.43,-3.8
5.432,-3.4
5.434,-3.1
5.436,-3.3
5.438,-3.2
5.44,-3.2
5.442,-3.7
5.444,-3.9
5.446,-3.5
5.448,-3.3
5.45,-3.5
5.452,-3.1
5.454,-3.0
5.456,-3.1
5.458,-2.6
5.46,-3.0
5.462,-3.2
5.464,-3.3
5.466,-2.7
5.468,-3.3
5.47,-2.9
5.472,-3.1
5.474,-2.7
5.476,-3.0
5.478,-2.7
5.48,-2.5
5.482,-2.8
5.484,-2.9
5.486,-2.6
5.488,-2.7
5.49,-3.2
5.492,-3.2
5.494,-3.1
5.496,-2.6
5.498,-2.0
5.5,-2.6
5.502,-3.2
5.5040000000000004,-2.9
5.506,-2.9
5.508,-2.9
5.51,-2.7
5.5120000000000005,-2.3
5.514,-2.3
5.516,-2.6
5.518,-2.0
5.5200000000000005,-2.4
5.522,-2.2
5.524,-2.5
5.526,-2.3
5.5280000000000005,-2.7
5.53,-2.3
5.532,-2.1
5.534,-2.1
5.5360000000000005,-2.2
5.538,-1.0
5.54,-1.1
5.542,-1.8
5.5440000000000005,-1.9
5.546,-1.2
5.548,-2.2
5.55,-1.9
5.5520000000000005,-1.5
5.554,-1.0
5.556,-1.5
5.558,-0.6
5.5600000000000005,-0.6
5.562,-0.8
5.564,-0.8
5.566,-0.8
5.5680000000000005,-1.3
5.57,-1.3
5.572,-0.5
5.574,-0.1
5.5760000000000005,0.0
5.578,0.5
5.58,0.3
5.582,0.4
5.5840000000000005,0.4
5.586,0.6
5.588,0.4
5.59,0.4
5.5920000000000005,0.8
5.594,1.3
5.596,1.2
5.598,1.4
5.6000000000000005,0.9
5.602,1.1
5.604,1.1
5.606,1.1
5.6080000000000005,0.5
5.61,1.2
5.612,1.3
5.614,1.6
5.6160000000000005,1.8
5.618,2.4
5.62,1.8
5.622,1.5
5.6240000000000006,1.4
5.626,1.6
5.628,0.8
5.63,1.2
5.632,1.2
5.634,0.8
5.636,0.7
5.638,1.9
5.64,1.2
5.642,0.2
5.644,-0.4
5.646,0.0
5.648,-0.9
5.65,-1.3
5.652,-1.5
5.654,-1.0
5.656,-1.4
5.658,-1.2
5.66,-1.2
5.662,-1.4
5.664,-1.6
5.666,-2.0
5.668,-2.5
5.67,-2.4
5.672,-2.7
5.674,-2.3
5.676,-2.8
5.678,-2.4
5.68,-2.8
5.682,-3.1
5.684,-3.2
5.686,-3.3
5.688,-3.3
5.69,-3.4
5.692,-3.4
5.694,-3.4
5.696,-2.8
5.698,-3.0
5.7,-3.2
5.702,-3.3
5.704,-3.2
5.706,-3.5
5.708,-3.2
5.71,-3.3
5.712,-3.5
5.714,-3.7
5.716,-3.5
5.718,-2.8
5.72,-3.2
5.722,-3.4
5.724,-3.1
5.726,-3.9
5.728,-3.9
5.73,-3.5
5.732,-3.5
5.734,-3.5
5.736,-3.2
5.738,-2.6
5.74,-2.8
5.742,-3.7
5.744,-3.6
5.746,-3.9
5.748,-4.3
5.75,-4.3
5.752,-3.6
5.7540000000000004,-3.6
5.756,-3.0
5.758,-3.5
5.76,-3.2
5.7620000000000005,-3.3
5.764,-3.6
5.766,-3.7
5.768,-3.7
5.7700000000000005,-3.1
5.772,-3.1
5.774,-3.6
5.776,-2.8
5.7780000000000005,-3.1
5.78,-3.2
5.782,-3.3
5.784,-3.1
5.7860000000000005,-3.5
5.788,-3.6
5.79,-3.3
5.792,-3.3
5.7940000000000005,-3.5
5.796,-3.2
5.798,-3.2
5.8,-3.3
5.8020000000000005,-3.3
5.804,-2.8
5.806,-3.7
5.808,-3.0
5.8100000000000005,-2.8
5.812,-2.8
5.814,-2.8
5.816,-2.6
5.8180000000000005,-2.9
5.82,-3.3
5.822,-3.4
5.824,-2.8
5.8260000000000005,-3.6
5.828,-3.4
5.83,-2.9
5.832,-2.9
5.8340000000000005,-3.1
5.836,-2.2
5.838,-2.6
5.84,-3.0
5.8420000000000005,-2.6
5.844,-2.1
5.846,-3.4
5.848,-3.6
5.8500000000000005,-3.0
5.852,-2.6
5.854,-2.8
5.856,-2.3
5.8580000000000005,-2.3
5.86,-2.5
5.862,-2.9
5.864,-2.6
5.8660000000000005,-3.2
5.868,-3.8
5.87,-3.5
5.872,-3.3
5.8740000000000006,-3.0
5.876,-2.4
5.878,-3.2
5.88,-3.1
5.882000000000001,-3.0
5.884,-3.3
5.886,-3.9
5.888,-3.9
5.89,-3.8
5.892,-3.7
5.894,-3.8
5.896,-2.8
5.898,-3.0
5.9,-3.4
5.902,-3.6
5.904,-3.1
5.906,-3.3
5.908,-3.3
5.91,-3.3
5.912,-3.4
5.914,-3.5
5.916,-3.0
5.918,-3.1
5.92,-3.2
5.922,-2.7
5.924,-2.6
5.926,-3.6
5.928,-3.9
5.93,-3.6
5.932,-3.7
5.934,-3.7
5.936,-2.9
5.938,-2.6
5.94,-3.0
5.942,-3.2
5.944,-3.2
5.946,-3.3
5.948,-3.5
5.95,-3.3
5.952,-3.5
5.954,-3.5
5.956,-3.2
5.958,-3.2
5.96,-3.2
5.962,-3.2
5.964,-3.6
5.966,-3.6
5.968,-3.6
5.97,-3.8
5.972,-3.1
5.974,-2.8
5.976,-2.7
5.978,-3.3
5.98,-3.4
5.982,-3.4
5.984,-3.5
5.986,-3.9
5.988,-3.2
5.99,-2.5
5.992,-2.5
5.994,-2.5
5.996,-2.4
5.998,-2.7
6.0,-3.2
6.002,-3.3
6.0040000000000004,-3.2
6.006,-3.9
6.008,-3.9
6.01,-3.6
6.0120000000000005,-3.5
6.014,-3.3
6.016,-3.3
6.018,-3.4
6.0200000000000005,-3.1
6.022,-3.1
6.024,-2.6
6.026,-2.8
6.0280000000000005,-2.9
6.03,-2.9
6.032,-3.8
6.034,-3.3
6.0360000000000005,-2.4
6.038,-2.7
6.04,-3.1
6.042,-2.5
6.0440000000000005,-3.0
6.046,-2.5
6.048,-2.3
6.05,-2.5
6.0520000000000005,-2.5
6.054,-2.1
6.056,-2.0
6.058,-1.9
6.0600000000000005,-2.1
6.062,-2.7
6.064,-3.1
6.066,-2.3
6.0680000000000005,-1.7
6.07,-1.7
6.072,-2.3
6.074,-1.5
6.0760000000000005,-2.0
6.078,-2.3
6.08,-1.8
6.082,-2.1
6.0840000000000005,-2.6
6.086,-2.2
6.088,-2.2
6.09,-2.0
6.0920000000000005,-2.0
6.094,-1.3
6.096,-2.4
6.098,-2.8
6.1000000000000005,-2.5
6.102,-2.2
6.104,-2.7
6.106,-2.7
6.1080000000000005,-2.7
6.11,-2.6
6.112,-3.1
6.114,-2.2
6.1160000000000005,-2.4
6.118,-2.4
6.12,-2.8
6.122,-2.5
6.1240000000000006,-3.1
6.126,-2.9
6.128,-2.4
6.13,-2.4
6.132000000000001,-2.8
6.134,-2.6
6.136,-3.0
6.138,-3.4
6.140000000000001,-2.9
6.142,-2.9
6.144,-3.1
6.146,-3.1
6.148,-3.1
6.15,-2.7
6.152,-3.0
6.154,-2.4
6.156,-2.8
6.158,-3.0
6.16,-3.0
6.162,-2.6
6.164,-3.4
6.166,-3.2
6.168,-3.4
6.17,-2.9
6.172,-2.8
6.174,-2.4
6.176,-2.6
6.178,-3.4
6.18,-3.8
6.182,-3.7
6.184,-4.6
6.186,-4.6
6.188,-4.9
6.19,-4.3
6.192,-3.9
6.194,-1.5
6.196,-0.4
6.198,0.9
6.2,1.5
6.202,2.1
6.204,3.5
6.206,5.8
6.208,6.5
6.21,6.5
6.212,5.5
6.214,4.5
6.216,3.0
6.218,2.5
6.22,2.5
6.222,0.6
6.224,-1.8
6.226,-4.1
6.228,-5.8
6.23,-5.4
6.232,-5.3
6.234,-5.0
6.236,-4.5
6.238,-4.7
6.24,-4.8
6.242,-4.7
6.244,-4.8
6.246,-4.3
6.248,-3.9
6.25,-3.9
6.252,-3.9
6.2540000000000004,-2.6
6.256,-2.7
6.258,-2.4
6.26,-2.7
6.2620000000000005,-2.9
6.264,-2.9
6.266,-2.8
6.268,-2.8
6.2700000000000005,-3.2
6.272,-1.8
6.274,-1.8
6.276,-1.8
6.2780000000000005,-2.4
6.28,-2.4
6.282,-2.6
6.284,-2.7
6.2860000000000005,-2.7
6.288,-2.3
6.29,-1.9
6.292,-1.5
6.2940000000000005,-1.6
6.296,-1.7
6.298,-1.9
6.3,-2.2
6.3020000000000005,-2.3
6.304,-2.4
6.306,-2.5
6.308,-2.2
6.3100000000000005,-2.2
6.312,-2.2
6.314,-2.1
6.316,-2.0
6.3180000000000005,-2.5
6.32,-1.6
6.322,-2.1
6.324,-2.4
6.3260000000000005,-2.1
6.328,-2.0
6.33,-2.0
6.332,-1.7
6.3340000000000005,-2.0
6.336,-2.1
6.338,-2.1
6.34,-1.5
6.3420000000000005,-2.4
6.344,-2.2
6.346,-1.9
6.348,-1.6
6.3500000000000005,-1.6
6.352,-1.0
6.354,-1.6
6.356,-1.4
6.3580000000000005,-1.8
6.36,-1.2
6.362,-1.5
6.364,-1.5
6.3660000000000005,-0.8
6.368,-0.8
6.37,-1.5
6.372,-0.5
6.3740000000000006,-0.6
6.376,-0.5
6.378,-0.5
6.38,-0.5
6.382000000000001,-1.1
6.384,-1.2
6.386,-0.6
6.388,-0.1
6.390000000000001,-0.1
6.392,0.0
6.394,-0.3
6.396,-0.3
6.398000000000001,-0.4
6.4,-0.5
6.402,-0.4
6.404,-0.1
6.406,-0.4
6.408,0.3
6.41,0.5
6.412,0.5
6.414,0.3
6.416,0.5
6.418,0.6
6.42,0.8
6.422,0.5
6.424,1.0
6.426,1.6
6.428,1.7
6.43,1.2
6.432,2.2
6.434,1.4
6.436,1.8
6.438,1.6
6.44,1.8
6.442,1.5
6.444,2.4
6.446,2.8
6.448,2.9
6.45,2.7
6.452,2.9
6.454,2.9
6.456,2.6
6.458,2.7
6.46,2.6
6.462,1.9
6.464,1.8
6.466,2.8
6.468,2.1
6.47,2.9
6.472,3.9
6.474,3.1
6.476,2.0
6.478,1.7
6.48,2.0
6.482,1.4
6.484,1.4
6.486,1.6
6.488,1.1
6.49,1.0
6.492,1.0
6.494,0.9
6.496,0.4
6.498,-0.1
6.5,-1.0
6.502,-1.2
6.5040000000000004,-1.1
6.506,-1.1
6.508,-0.7
6.51,-0.2
6.5120000000000005,-0.2
6.514,-0.9
6.516,-1.0
6.518,-1.5
6.5200000000000005,-1.8
6.522,-1.8
6.524,-2.0
6.526,-2.0
6.5280000000000005,-1.9
6.53,-1.3
6.532,-1.3
6.534,-1.6
6.5360000000000005,-1.8
6.538,-1.6
6.54,-2.8
6.542,-2.6
6.5440000000000005,-2.7
6.546,-2.4
6.548,-2.3
6.55,-1.9
6.5520000000000005,-1.7
6.554,-1.9
6.556,-2.1
6.558,-2.3
6.5600000000000005,-2.7
6.562,-2.8
6.564,-2.6
6.566,-2.6
6.5680000000000005,-2.6
6.57,-2.6
6.572,-2.6
6.574,-2.9
6.5760000000000005,-2.3
6.578,-2.1
6.58,-2.8
6.582,-2.5
6.5840000000000005,-2.5
6.586,-2.7
6.588,-2.5
6.59,-1.5
6.5920000000000005,-1.8
6.594,-2.0
6.596,-2.5
6.598,-2.4
6.6000000000000005,-2.7
6.602,-2.5
6.604,-2.8
6.606,-2.2
6.6080000000000005,-2.2
6.61,-1.7
6.612,-2.0
6.614,-2.0
6.6160000000000005,-2.2
6.618,-1.7
6.62,-2.1
6.622,-2.1
6.6240000000000006,-2.1
6.626,-1.4
6.628,-1.7
6.63,-1.5
6.632000000000001,-1.7
6.634,-2.1
6.636,-2.6
6.638,-2.2
6.640000000000001,-2.3
6.642,-2.3
6.644,-2.0
6.646,-1.7
6.648000000000001,-1.7
6.65,-0.8
6.652,-1.2
6.654,-1.9
6.656000000000001,-2.1
6.658,-1.4
6.66,-2.1
6.662,-2.0
6.664,-2.1
6.666,-2.1
6.668,-2.5
6.67,-1.7
6.672,-1.6
6.674,-1.4
6.676,-1.8
6.678,-1.6
6.68,-2.1
6.682,-2.1
6.684,-1.9
6.686,-2.1
6.688,-2.0
6.69,-1.5
6.692,-1.9
6.694,-1.9
6.696,-2.2
6.698,-1.6
6.7,-2.2
6.702,-2.2
6.704,-2.1
6.706,-1.7
6.708,-2.4
6.71,-2.0
6.712,-2.1
6.714,-2.1
6.716,-2.1
6.718,-1.8
6.72,-2.4
6.722,-2.4
6.724,-2.5
6.726,-1.7
6.728,-1.7
6.73,-1.7
6.732,-1.9
6.734,-2.0
6.736,-2.2
6.738,-2.2
6.74,-3.0
6.742,-2.6
6.744,-2.1
6.746,-2.0
6.748,-2.3
6.75,-1.8
6.752,-1.6
6.7540000000000004,-1.8
6.756,-2.0
6.758,-2.1
6.76,-3.0
6.7620000000000005,-2.9
6.764,-2.6
6.766,-2.3
6.768,-2.4
6.7700000000000005,-1.6
6.772,-2.0
6.774,-2.5
6.776,-2.4
6.7780000000000005,-2.2
6.78,-2.7
6.782,-2.6
6.784,-2.3
6.7860000000000005,-2.4
6.788,-2.0
6.79,-1.5
6.792,-1.9
6.7940000000000005,-2.2
6.796,-2.2
6.798,-2.2
6.8,-2.7
6.8020000000000005,-2.4
6.804,-2.5
6.806,-2.2
6.808,-2.1
6.8100000000000005,-1.7
6.812,-1.9
6.814,-1.8
6.816,-2.0
6.8180000000000005,-2.0
6.82,-2.1
6.822,-2.1
6.824,-2.1
6.8260000000000005,-2.2
6.828,-2.1
6.83,-2.0
6.832,-1.8
6.8340000000000005,-1.5
6.836,-1.5
6.838,-2.1
6.84,-1.9
6.8420000000000005,-1.6
6.844,-1.5
6.846,-1.5
6.848,-1.3
6.8500000000000005,-1.3
6.852,-1.7
6.854,-1.8
6.856,-1.5
6.8580000000000005,-2.0
6.86,-1.6
6.862,-1.6
6.864,-1.7
6.8660000000000005,-1.6
6.868,-0.9
6.87,-1.1
6.872,-1.5
6.8740000000000006,-1.7
6.876,-1.8
6.878,-2.0
6.88,-2.1
6.882000000000001,-2.1
6.884,-2.0
6.886,-2.0
6.888,-1.7
6.890000000000001,-1.8
6.892,-2.4
6.894,-2.6
6.896,-2.2
6.898000000000001,-2.5
6.9,-2.6
6.902,-2.4
6.904,-2.4
6.906000000000001,-2.4
6.908,-2.1
6.91,-2.0
6.912,-2.8
6.914,-2.7
6.916,-2.5
6.918,-3.5
6.92,-2.4
6.922,-2.4
6.924,-2.4
6.926,-3.0
6.928,-1.8
6.93,-2.3
6.932,-2.5
6.934,-2.8
6.936,-2.6
6.938,-2.8
6.94,-2.7
6.942,-2.7
6.944,-1.8
6.946,-2.4
6.948,-2.0
6.95,-2.0
6.952,-2.1
6.954,-2.1
6.956,-2.0
6.958,-3.5
6.96,-3.1
6.962,-2.3
6.964,-2.4
6.966,-3.1
6.968,-2.9
6.97,-3.3
6.972,-3.6
6.974,-4.5
6.976,-4.0
6.978,-3.2
6.98,-2.4
6.982,-0.9
6.984,0.4
6.986,1.9
6.988,4.4
6.99,5.9
6.992,7.3
6.994,7.2
6.996,6.9
6.998,5.0
7.0,3.6
7.002,2.7
7.0040000000000004,3.2
7.006,2.6
7.008,1.6
7.01,-0.3
7.0120000000000005,-2.7
7.014,-5.0
7.016,-4.6
7.018,-5.0
7.0200000000000005,-5.2
7.022,-4.7
7.024,-4.4
7.026,-4.4
7.0280000000000005,-3.8
7.03,-3.5
7.032,-3.5
7.034,-3.2
7.0360000000000005,-2.9
7.038,-3.3
7.04,-3.0
7.042,-2.0
7.0440000000000005,-1.8
7.046,-1.4
7.048,-1.4
7.05,-1.4
7.0520000000000005,-1.6
7.054,-1.6
7.056,-1.6
7.058,-1.9
7.0600000000000005,-1.9
7.062,-1.4
7.064,-1.4
7.066,-1.5
7.0680000000000005,-1.2
7.07,-1.2
7.072,-1.5
7.074,-1.5
7.0760000000000005,-1.4
7.078,-1.5
7.08,-1.5
7.082,-0.9
7.0840000000000005,-0.4
7.086,-0.4
7.088,-1.0
7.09,-1.5
7.0920000000000005,-1.2
7.094,-1.3
7.096,-1.4
7.098,-1.4
7.1000000000000005,-0.8
7.102,-0.8
7.104,-0.7
7.106,-0.7
7.1080000000000005,-0.8
7.11,-0.8
7.112,-1.4
7.114,-1.1
7.1160000000000005,-1.1
7.118,-1.3
7.12,-0.8
7.122,-0.9
7.1240000000000006,-0.3
7.126,-0.2
7.128,-0.3
7.13,-0.6
7.132000000000001,-0.7
7.134,-0.3
7.136,-0.6
7.138,-0.6
7.140000000000001,-1.0
7.142,-0.3
7.144,-0.3
7.146,-0.1
7.148000000000001,-0.1
7.15,-0.2
7.152,-0.2
7.154,-0.2
7.156000000000001,-0.8
7.158,-0.4
7.16,0.2
7.162,0.3
7.164000000000001,0.0
7.166,0.8
7.168,0.8
7.17,0.5
7.172,0.5
7.174,0.7
7.176,0.5
7.178,0.5
7.18,0.6
7.182,0.6
7.184,0.8
7.186,1.7
7.188,0.8
7.19,1.2
7.192,0.5
7.194,1.4
7.196,1.3
7.198,1.5
7.2,2.0
7.202,1.8
7.204,1.8
7.206,1.8
7.208,2.1
7.21,2.1
7.212,2.1
7.214,2.6
7.216,1.9
7.218,2.3
7.22,2.8
7.222,2.9
7.224,3.4
7.226,4.0
7.228,3.8
7.23,3.9
7.232,3.6
7.234,3.6
7.236,2.8
7.238,3.1
7.24,3.0
7.242,3.4
7.244,3.4
7.246,3.7
7.248,3.8
7.25,3.4
7.252,3.2
7.2540000000000004,3.3
7.256,2.8
7.258,2.9
7.26,2.9
7.2620000000000005,3.5
7.264,2.9
7.266,3.2
7.268,3.2
7.2700000000000005,2.8
7.272,2.3
7.274,2.3
7.276,0.8
7.2780000000000005,0.6
7.28,0.9
7.282,0.5
7.284,0.2
7.2860000000000005,0.6
7.288,-0.1
7.29,-0.4
7.292,-0.5
7.2940000000000005,-0.1
7.296,-0.6
7.298,-1.0
7.3,-1.0
7.3020000000000005,-0.8
7.304,-0.6
7.306,-0.5
7.308,-1.4
7.3100000000000005,-1.5
7.312,-1.3
7.314,-1.3
7.316,-1.6
7.3180000000000005,-1.1
7.32,-0.8
7.322,-0.8
7.324,-1.1
7.3260000000000005,-0.8
7.328,-1.8
7.33,-1.7
7.332,-1.7
7.3340000000000005,-1.2
7.336,-1.5
7.338,-1.6
7.34,-1.1
7.3420000000000005,-1.0
7.344,-1.1
7.346,-1.2
7.348,-1.1
7.3500000000000005,-1.5
7.352,-1.4
7.354,-1.4
7.356,-2.4
7.3580000000000005,-1.9
7.36,-1.4
7.362,-1.5
7.364,-1.4
7.3660000000000005,-1.0
7.368,-1.3
7.37,-2.0
7.372,-2.1
7.3740000000000006,-1.4
7.376,-2.2
7.378,-2.0
7.38,-1.7
7.382000000000001,-1.3
7.384,-1.3
7.386,-1.1
7.388,-1.1
7.390000000000001,-1.6
7.392,-2.0
7.394,-1.8
7.396,-2.0
7.398000000000001,-2.0
7.4,-1.8
7.402,-1.8
7.404,-1.4
7.406000000000001,-1.6
7.408,-1.4
7.41,-1.2
7.412,-1.7
7.414000000000001,-1.9
7.416,-1.9
7.418,-1.4
7.42,-1.2
7.422000000000001,-1.4
7.424,-1.1
7.426,-1.5
7.428,-1.5
7.43,-1.2
7.432,-0.9
7.434,-2.0
7.436,-1.5
7.438,-1.5
7.44,-1.0
7.442,-1.4
7.444,-0.5
7.446,-0.5
7.448,-0.7
7.45,-1.2
7.452,-1.1
7.454,-1.4
7.456,-1.7
7.458,-1.4
7.46,-0.9
7.462,-0.9
7.464,-0.7
7.466,-0.6
7.468,-0.9
7.47,-0.9
7.472,-0.9
7.474,-1.1
7.476,-1.1
7.478,-1.4
7.48,-1.4
7.482,-1.3
7.484,-0.7
7.486,-1.6
7.488,-1.4
7.49,-1.5
7.492,-1.6
7.494,-1.9
7.496,-1.2
7.498,-1.0
7.5,-1.0
7.502,-1.2
7.5040000000000004,-0.8
7.506,-0.9
7.508,-1.0
7.51,-1.1
7.5120000000000005,-0.9
7.514,-1.7
7.516,-1.4
7.518,-1.5
7.5200000000000005,-1.1
7.522,-1.4
7.524,-0.8
7.526,-0.9
7.5280000000000005,-0.9
7.53,-0.9
7.532,-0.7
7.534,-1.9
7.5360000000000005,-2.0
7.538,-1.8
7.54,-1.7
7.542,-1.5
7.5440000000000005,-1.4
7.546,-1.4
7.548,-1.4
7.55,-1.7
7.5520000000000005,-1.5
7.554,-1.5
7.556,-1.2
7.558,-1.1
7.5600000000000005,-1.2
7.562,-1.9
7.564,-1.6
7.566,-1.5
7.5680000000000005,-1.2
7.57,-1.6
7.572,-1.2
7.574,-1.6
7.5760000000000005,-1.4
7.578,-1.4
7.58,-1.0
7.582,-1.4
7.5840000000000005,-1.0
7.586,-1.4
7.588,-1.4
7.59,-1.5
7.5920000000000005,-1.1
7.594,-2.0
7.596,-1.6
7.598,-1.3
7.6000000000000005,-1.6
7.602,-1.7
7.604,-0.7
7.606,-0.7
7.6080000000000005,-1.5
7.61,-1.6
7.612,-1.6
7.614,-1.7
7.6160000000000005,-1.8
7.618,-1.2
7.62,-0.8
7.622,-0.6
7.6240000000000006,-0.2
7.626,-0.4
7.628,-0.6
7.63,-0.6
7.632000000000001,-1.1
7.634,-1.1
7.636,-1.2
7.638,-0.8
7.640000000000001,-0.9
7.642,-0.6
7.644,-0.5
7.646,-0.5
7.648000000000001,-0.5
7.65,-0.8
7.652,-0.8
7.654,-1.1
7.656000000000001,-0.6
7.658,-0.4
7.66,-0.2
7.662,-0.4
7.664000000000001,-0.4
7.666,-0.7
7.668,-1.1
7.67,-1.0
7.672000000000001,-0.9
7.674,-1.4
7.676,-1.4
7.678,-1.4
7.68,-1.0
7.682,-1.0
7.684,-1.0
7.686,-1.3
7.688,-1.2
7.69,-1.6
7.692,-1.8
7.694,-1.6
7.696,-1.7
7.698,-1.0
7.7,-1.2
7.702,-1.2
7.704,-1.2
7.706,-1.4
7.708,-1.8
7.71,-1.8
7.712,-2.0
7.714,-1.9
7.716,-1.7
7.718,-1.2
7.72,-1.4
7.722,-1.1
7.724,-1.2
7.726,-1.3
7.728,-1.6
7.73,-1.4
7.732,-2.0
7.734,-2.1
7.736,-1.8
7.738,-1.7
7.74,-1.6
7.742,-1.6
7.744,-1.6
7.746,-1.8
7.748,-1.8
7.75,-2.2
7.752,-2.6
7.7540000000000004,-2.2
7.756,-2.3
7.758,-2.7
7.76,-3.1
7.7620000000000005,-3.1
7.764,-3.1
7.766,-3.1
7.768,-2.4
7.7700000000000005,-1.5
7.772,-0.8
7.774,1.2
7.776,2.4
7.7780000000000005,4.0
7.78,5.4
7.782,7.3
7.784,8.0
7.7860000000000005,8.0
7.788,6.8
7.79,5.9
7.792,4.3
7.7940000000000005,4.3
7.796,4.1
7.798,2.9
7.8,1.0
7.8020000000000005,-1.2
7.804,-3.8
7.806,-4.3
7.808,-4.5
7.8100000000000005,-4.1
7.812,-4.1
7.814,-3.6
7.816,-3.5
7.8180000000000005,-3.1
7.82,-2.4
7.822,-1.9
7.824,-1.9
7.8260000000000005,-2.1
7.828,-2.5
7.83,-1.6
7.832,-2.2
7.8340000000000005,-2.1
7.836,-1.4
7.838,-0.4
7.84,-1.0
7.8420000000000005,-0.3
7.844,-0.4
7.846,-0.4
7.848,-0.7
7.8500000000000005,-0.5
7.852,-1.5
7.854,-1.6
7.856,-1.1
7.8580000000000005,-0.5
7.86,-1.0
7.862,0.2
7.864,0.0
7.8660000000000005,0.0
7.868,-1.0
7.87,-0.3
7.872,-1.2
7.8740000000000006,-1.3
7.876,-0.7
7.878,-0.5
7.88,-0.2
7.882000000000001,-0.3
7.884,-0.2
7.886,0.4
7.888,0.2
7.890000000000001,-0.5
7.892,-0.8
7.894,-0.8
7.896,-0.2
7.898000000000001,-0.1
7.9,-0.6
7.902,-0.2
7.904,-0.4
7.906000000000001,-0.4
7.908,-0.2
7.91,-0.2
7.912,-0.4
7.914000000000001,-0.5
7.916,0.1
7.918,0.3
7.92,0.3
7.922000000000001,0.5
7.924,-0.5
7.926,-0.2
7.928,0.0
7.930000000000001,-0.4
7.932,-0.2
7.934,-0.2
7.936,0.4
7.938,0.4
7.94,0.8
7.942,0.7
7.944,0.3
7.946,0.1
7.948,0.2
7.95,0.3
7.952,0.0
7.954,0.5
7.956,0.6
7.958,0.4
7.96,0.9
7.962,1.4
7.964,1.2
7.966,0.8
7.968,0.6
7.97,0.5
7.972,0.8
7.974,1.0
7.976,1.4
7.978,1.6
7.98,1.9
7.982,1.7
7.984,1.4
7.986,1.9
7.988,1.9
7.99,1.9
7.992,2.1
7.994,2.2
7.996,2.4
7.998,2.5
8.0,3.2
8.002,2.7
8.004,2.5
8.006,2.8
8.008000000000001,3.0
8.01,2.6
8.012,2.7
8.014,2.8
8.016,2.8
8.018,3.3
8.02,4.0
8.022,3.9
8.024000000000001,3.8
8.026,4.1
8.028,4.7
8.03,3.8
8.032,3.6
8.034,4.1
8.036,3.7
8.038,3.7
8.040000000000001,4.3
8.042,4.5
8.044,3.6
8.046,3.6
8.048,4.1
8.05,2.9
8.052,3.1
8.054,3.0
8.056000000000001,3.2
8.058,2.9
8.06,3.2
8.062,2.8
8.064,2.6
8.066,2.2
8.068,2.2
8.07,0.9
8.072000000000001,0.9
8.074,1.1
8.076,1.4
8.078,0.6
8.08,2.1
8.082,1.2
8.084,0.3
8.086,0.3
8.088000000000001,0.2
8.09,-0.5
8.092,-0.4
8.094,-0.2
8.096,-0.9
8.098,-1.0
8.1,-0.3
8.102,-0.3
8.104000000000001,-0.4
8.106,-0.4
8.108,-0.5
8.11,-1.1
8.112,-1.2
8.114,-0.7
8.116,-0.8
8.118,-1.5
8.120000000000001,-0.9
8.122,-1.0
8.124,-1.4
8.126,-1.2
8.128,-1.2
8.13,-1.4
8.132,-1.0
8.134,-1.0
8.136000000000001,-1.3
8.138,-1.4
8.14,-0.6
8.142,-1.1
8.144,-1.6
8.146,-1.9
8.148,-1.7
8.15,-2.4
8.152000000000001,-1.6
8.154,-1.6
8.156,-1.3
8.158,-1.2
8.16,-0.8
8.162,-0.9
8.164,-0.9
8.166,-1.5
8.168000000000001,-1.4
8.17,-1.5
8.172,-1.4
8.174,-1.4
8.176,-1.2
8.178,-1.2
8.18,-0.7
8.182,-0.6
8.184000000000001,-0.9
8.186,-1.1
8.188,-0.8
8.19,-1.2
8.192,-1.2
8.194,-1.2
8.196,-0.8
8.198,-0.8
8.2,-0.9
8.202,-0.8
8.204,-0.5
8.206,-0.6
8.208,-0.6
8.21,-0.7
8.212,-0.8
8.214,-0.7
8.216,-0.8
8.218,-0.8
8.22,-0.8
8.222,-1.4
8.224,-0.9
8.226,-0.8
8.228,-1.1
8.23,-0.9
8.232,-1.2
8.234,-0.5
8.236,-0.2
8.238,-0.2
8.24,-0.2
8.242,-0.9
8.244,-0.9
8.246,-1.1
8.248,-0.7
8.25,-1.1
8.252,-1.0
8.254,0.1
8.256,0.5
8.258000000000001,-0.1
8.26,-0.1
8.262,-1.1
8.264,-1.5
8.266,-1.5
8.268,-1.2
8.27,-1.3
8.272,-1.3
8.274000000000001,-0.7
8.276,-0.5
8.278,-0.2
8.28,-0.2
8.282,-0.5
8.284,-0.6
8.286,-0.6
8.288,-1.5
8.290000000000001,-1.3
8.292,-1.0
8.294,-0.9
8.296,-1.1
8.298,-0.8
8.3,-0.9
8.302,-0.7
8.304,-0.9
8.306000000000001,-0.7
8.308,-1.5
8.31,-1.5
8.312,-1.1
8.314,-1.0
8.316,-1.2
8.318,-0.8
8.32,-0.6
8.322000000000001,-0.6
8.324,-0.7
8.326,-0.8
8.328,-1.2
8.33,-1.1
8.332,-1.2
8.334,-1.3
8.336,-1.3
8.338000000000001,-0.4
8.34,-0.5
8.342,-0.8
8.344,-0.8
8.346,-0.5
8.348,-1.0
8.35,-0.8
8.352,-1.2
8.354000000000001,-1.0
8.356,-0.7
8.358,0.1
8.36,-0.6
8.362,-1.6
8.364,-0.9
8.366,-0.8
8.368,-1.4
8.370000000000001,-1.8
8.372,-1.1
8.374,-0.8
8.376,-0.8
8.378,-0.2
8.38,-0.6
8.382,-0.8
8.384,-0.3
8.386000000000001,-0.1
8.388,-1.2
8.39,-1.6
8.392,-1.1
8.394,-0.9
8.396,-0.9
8.398,0.0
8.4,-0.6
8.402000000000001,-0.9
8.404,-0.9
8.406,-0.9
8.408,-2.3
8.41,-1.2
8.412,-1.2
8.414,-0.7
8.416,-0.4
8.418000000000001,-0.2
8.42,-0.2
8.422,-0.4
8.424,-0.2
8.426,0.2
8.428,-0.2
8.43,-0.2
8.432,-0.4
8.434000000000001,-0.2
8.436,-0.4
8.438,0.4
8.44,0.1
8.442,0.1
8.444,-0.6
8.446,-0.6
8.448,-0.7
8.45,-0.4
8.452,-0.1
8.454,-0.1
8.456,-0.1
8.458,0.6
8.46,0.1
8.462,0.1
8.464,-0.1
8.466,-0.6
8.468,-1.3
8.47,-1.3
8.472,-1.2
8.474,-1.1
8.476,-1.1
8.478,-0.9
8.48,-0.6
8.482,-1.0
8.484,-0.6
8.486,-0.6
8.488,-1.1
8.49,-1.2
8.492,-0.6
8.494,-0.6
8.496,-0.8
8.498,-0.7
8.5,-0.8
8.502,-0.9
8.504,-1.0
8.506,-0.6
8.508000000000001,-1.0
8.51,-1.1
8.512,-1.0
8.514,-0.8
8.516,-0.8
8.518,-0.8
8.52,-1.0
8.522,-1.1
8.524000000000001,-0.9
8.526,-0.8
8.528,-0.9
8.53,-1.3
8.532,-0.9
8.534,-0.8
8.536,-1.2
8.538,-1.1
8.540000000000001,-0.9
8.542,-1.4
8.544,-1.0
8.546,-2.0
8.548,-2.2
8.55,-1.6
8.552,-1.6
8.554,-1.7
8.556000000000001,-2.2
8.558,-2.6
8.56,-2.4
8.562,-1.4
8.564,-1.3
8.566,-0.3
8.568,1.3
8.57,2.8
8.572000000000001,4.5
8.574,6.4
8.576,8.6
8.578,9.2
8.58,9.3
8.582,8.5
8.584,6.5
8.586,4.8
8.588000000000001,5.3
8.59,5.1
8.592,3.7
8.594,1.9
8.596,-0.4
8.598,-2.8
8.6,-3.5
8.602,-3.7
8.604000000000001,-3.6
8.606,-3.8
8.608,-3.8
8.61,-3.1
8.612,-2.6
8.614,-2.6
8.616,-0.9
8.618,-0.3
8.620000000000001,-0.3
8.622,-1.5
8.624,-1.4
8.626,-2.0
8.628,-1.6
8.63,-1.4
8.632,-0.9
8.634,-0.8
8.636000000000001,0.3
8.638,0.0
8.64,0.1
8.642,0.1
8.644,-0.8
8.646,-0.8
8.648,-1.2
8.65,-1.2
8.652000000000001,-0.6
8.654,-0.7
8.656,-0.3
8.658,-0.1
8.66,-0.1
8.662,-0.2
8.664,0.5
8.666,-0.4
8.668000000000001,-0.7
8.67,-0.3
8.672,0.1
8.674,0.1
8.676,0.3
8.678,0.0
8.68,-0.3
8.682,-0.5
8.684000000000001,-0.3
8.686,-0.6
8.688,-0.2
8.69,0.0
8.692,0.0
8.694,0.0
8.696,0.9
8.698,0.9
8.700000000000001,0.7
8.702,0.6
8.704,0.9
8.706,0.4
8.708,0.7
8.71,0.7
8.712,0.4
8.714,0.5
8.716,0.8
8.718,0.4
8.72,0.4
8.722,0.9
8.724,1.0
8.726,0.1
8.728,0.7
8.73,0.7
8.732,1.3
8.734,1.1
8.736,1.1
8.738,0.9
8.74,0.7
8.742,1.2
8.744,1.3
8.746,0.5
8.748,0.4
8.75,0.8
8.752,1.1
8.754,1.1
8.756,1.7
8.758000000000001,1.7
8.76,1.3
8.762,1.7
8.764,1.7
8.766,1.5
8.768,2.0
8.77,1.7
8.772,1.8
8.774000000000001,1.8
8.776,2.6
8.778,2.6
8.78,2.6
8.782,2.3
8.784,2.3
8.786,2.5
8.788,2.8
8.790000000000001,3.2
8.792,4.0
8.794,4.0
8.796,3.4
8.798,3.4
8.8,3.7
8.802,3.9
8.804,3.9
8.806000000000001,4.2
8.808,4.0
8.81,4.3
8.812,4.3
8.814,4.7
8.816,5.1
8.818,5.1
8.82,4.6
8.822000000000001,4.6
8.824,4.4
8.826,4.4
8.828,4.6
8.83,4.5
8.832,4.7
8.834,5.3
8.836,5.1
8.838000000000001,5.1
8.84,4.8
8.842,4.8
8.844,4.3
8.846,4.0
8.848,4.0
8.85,3.7
8.852,3.3
8.854000000000001,3.7
8.856,3.6
8.858,3.0
8.86,2.8
8.862,2.8
8.864,2.3
8.866,2.3
8.868,2.1
8.870000000000001,1.7
8.872,1.5
8.874,2.1
8.876,1.9
8.878,2.0
8.88,1.1
8.882,1.1
8.884,0.6
8.886000000000001,0.5
8.888,1.0
8.89,0.5
8.892,0.4
8.894,0.6
8.896,1.0
8.898,0.2
8.9,0.0
8.902000000000001,0.3
8.904,-0.3
8.906,-0.3
8.908,0.1
8.91,0.4
8.912,0.4
8.914,1.2
8.916,0.5
8.918000000000001,0.4
8.92,-0.1
8.922,0.1
8.924,-0.4
8.926,-0.4
8.928,-0.3
8.93,0.7
8.932,0.3
8.934000000000001,0.9
8.936,0.5
8.938,0.1
8.94,-0.3
8.942,0.1
8.944,-0.7
8.946,-0.2
8.948,0.0
8.950000000000001,0.2
8.952,-0.8
8.954,0.2
8.956,0.1
8.958,0.4
8.96,0.5
8.962,0.7
8.964,-0.8
8.966,-0.8
8.968,0.0
8.97,0.1
8.972,0.1
8.974,0.9
8.976,0.4
8.978,0.2
8.98,-0.1
8.982,0.0
8.984,-0.5
8.986,-0.1
8.988,0.3
8.99,0.4
8.992,0.3
8.994,0.7
8.996,0.6
8.998,0.5
9.0,0.0
9.002,-0.2
9.004,-0.6
9.006,-0.3
9.008000000000001,0.2
9.01,0.1
9.012,0.2
9.014,0.6
9.016,0.5
9.018,0.6
9.02,-0.2
9.022,0.3
9.024000000000001,-0.5
9.026,-0.2
9.028,0.1
9.03,-0.1
9.032,0.5
9.034,1.0
9.036,0.8
9.038,0.9
9.040000000000001,0.4
9.042,-0.2
9.044,-0.4
9.046,0.3
9.048,0.3
9.05,0.6
9.052,0.6
9.054,0.8
9.056000000000001,0.5
9.058,0.7
9.06,0.4
9.062,0.6
9.064,0.1
9.066,0.1
9.068,0.1
9.07,0.5
9.072000000000001,0.5
9.074,0.6
9.076,-0.1
9.078,-0.4
9.08,-0.5
9.082,0.2
9.084,0.9
9.086,0.6
9.088000000000001,0.8
9.09,0.3
9.092,0.5
9.094,0.4
9.096,0.5
9.098,0.1
9.1,0.0
9.102,0.2
9.104000000000001,-0.2
9.106,-0.2
9.108,0.2
9.11,0.6
9.112,0.5
9.114,0.6
9.116,0.1
9.118,-0.3
9.120000000000001,-0.2
9.122,-0.3
9.124,0.1
9.126,0.1
9.128,0.2
9.13,0.0
9.132,0.5
9.134,0.3
9.136000000000001,0.3
9.138,0.6
9.14,0.1
9.142,-0.3
9.144,-0.4
9.146,0.1
9.148,0.4
9.15,0.3
9.152000000000001,1.0
9.154,1.0
9.156,0.6
9.158,0.1
9.16,0.4
9.162,-0.1
9.164,-0.3
9.166,-0.1
9.168000000000001,0.3
9.17,0.1
9.172,0.7
9.174,0.6
9.176,0.0
9.178,0.7
9.18,0.5
9.182,0.3
9.184000000000001,0.2
9.186,0.4
9.188,0.8
9.19,0.7
9.192,1.0
9.194,0.7
9.196,0.7
9.198,0.7
9.200000000000001,1.3
9.202,0.7
9.204,0.4
9.206,0.9
9.208,1.1
9.21,0.2
9.212,1.6
9.214,1.7
9.216000000000001,1.6
9.218,1.0
9.22,0.9
9.222,0.4
9.224,0.4
9.226,0.6
9.228,0.6
9.23,-0.3
9.232,0.3
9.234,0.4
9.236,0.3
9.238,-0.5
9.24,0.0
9.242,-0.5
9.244,0.1
9.246,0.0
9.248,0.0
9.25,0.2
9.252,0.8
9.254,0.0
9.256,-0.1
9.258000000000001,-0.2
9.26,0.5
9.262,-0.7
9.264,-0.3
9.266,0.3
9.268,0.3
9.27,0.0
9.272,0.6
9.274000000000001,-0.1
9.276,-0.8
9.278,-0.3
9.28,-0.4
9.282,-0.8
9.284,-0.3
9.286,-0.2
9.288,0.1
9.290000000000001,-0.2
9.292,0.4
9.294,0.4
9.296,0.0
9.298,0.1
9.3,0.2
9.302,-0.5
9.304,-0.4
9.306000000000001,-0.2
9.308,-0.5
9.31,-1.0
9.312,-0.3
9.314,-0.2
9.316,-0.6
9.318,-0.8
9.32,-0.7
9.322000000000001,-1.5
9.324,-1.5
9.326,-1.2
9.328,-0.8
9.33,0.5
9.332,2.4
9.334,3.8
9.336,4.7
9.338000000000001,5.9
9.34,7.2
9.342,7.5
9.344,8.3
9.346,8.1
9.348,6.7
9.35,5.5
9.352,5.5
9.354000000000001,5.2
9.356,4.3
9.358,3.3
9.36,0.9
9.362,-2.5
9.364,-3.8
9.366,-3.3
9.368,-3.0
9.370000000000001,-2.3
9.372,-2.4
9.374,-2.0
9.376,-2.5
9.378,-2.5
9.38,-2.5
9.382,-2.6
9.384,-1.7
9.386000000000001,-0.7
9.388,-0.6
9.39,-0.4
9.392,0.0
9.394,0.6
9.396,0.2
9.398,0.2
9.4,0.2
9.402000000000001,0.5
9.404,0.1
9.406,0.0
9.408,0.6
9.41,1.4
9.412,1.2
9.414,1.1
9.416,0.6
9.418000000000001,0.8
9.42,0.4
9.422,0.6
9.424,0.6
9.426,0.7
9.428,1.1
9.43,1.4
9.432,1.3
9.434000000000001,1.5
9.436,1.1
9.438,0.9
9.44,0.5
9.442,0.6
9.444,0.6
9.446,1.1
9.448,0.5
9.450000000000001,1.5
9.452,1.5
9.454,1.4
9.456,1.8
9.458,1.5
9.46,0.9
9.462,0.9
9.464,1.1
9.466000000000001,1.1
9.468,1.1
9.47,1.5
9.472,1.6
9.474,1.0
9.476,1.0
9.478,1.5
9.48,0.7
9.482,1.1
9.484,1.7
9.486,1.8
9.488,1.6
9.49,1.7
9.492,1.7
9.494,1.6
9.496,1.6
9.498,1.8
9.5,1.2
9.502,1.3
9.504,1.7
9.506,1.7
9.508000000000001,2.0
9.51,2.7
9.512,2.4
9.514,2.2
9.516,2.2
9.518,2.5
9.52,2.7
9.522,2.1
9.524000000000001,2.3
9.526,2.5
9.528,2.4
9.53,3.0
9.532,3.2
9.534,2.9
9.536,2.9
9.538,3.4
9.540000000000001,2.2
9.542,2.3
9.544,2.3
9.546,3.0
9.548,2.9
9.55,3.6
9.552,3.8
9.554,3.8
9.556000000000001,3.6
9.558,4.4
9.56,4.0
9.562,3.9
9.564,4.3
9.566,4.7
9.568,4.6
9.57,4.7
9.572000000000001,4.7
9.574,5.0
9.576,4.6
9.578,5.4
9.58,5.0
9.582,5.3
9.584,5.3
9.586,5.4
9.588000000000001,4.7
9.59,5.2
9.592,5.2
9.594,5.1
9.596,4.9
9.598,5.2
9.6,4.9
9.602,4.7
9.604000000000001,4.9
9.606,5.1
9.608,4.6
9.61,5.0
9.612,4.8
9.614,4.6
9.616,4.2
9.618,4.3
9.620000000000001,3.9
9.622,3.5
9.624,3.4
9.626,3.6
9.628,3.2
9.63,3.3
9.632,2.7
9.634,2.3
9.636000000000001,2.0
9.638,2.0
9.64,1.3
9.642,1.6
9.644,1.6
9.646,2.0
9.648,1.3
9.65,1.5
9.652000000000001,1.1
9.654,1.1
9.656,1.0
9.658,0.8
9.66,0.4
9.662,0.3
9.664,1.0
9.666,0.3
9.668000000000001,0.9
9.67,0.8
9.672,-0.1
9.674,-0.1
9.676,-0.2
9.678,-0.2
9.68,0.0
9.682,0.1
9.684000000000001,0.3
9.686,-0.2
9.688,-0.7
9.69,0.1
9.692,-0.1
9.694,-0.1
9.696,0.2
9.698,0.1
9.700000000000001,-0.1
9.702,-0.1
9.704,0.2
9.706,0.3
9.708,0.7
9.71,0.5
9.712,0.0
9.714,-0.3
9.716000000000001,-0.3
9.718,-0.3
9.72,-0.2
9.722,0.0
9.724,0.1
9.726,-0.5
9.728,-0.2
9.73,0.2
9.732,-0.2
9.734,-0.1
9.736,0.3
9.738,-0.6
9.74,-0.3
9.742,-0.3
9.744,0.1
9.746,-0.1
9.748,0.1
9.75,1.0
9.752,-0.3
9.754,-0.3
9.756,0.1
9.758000000000001,-0.6
9.76,-0.6
9.762,-0.2
9.764,0.2
9.766,-0.1
9.768,0.3
9.77,0.5
9.772,0.2
9.774000000000001,-0.2
9.776,0.0
9.778,-0.3
9.78,-0.3
9.782,0.1
9.784,0.6
9.786,0.2
9.788,1.1
9.790000000000001,0.8
9.792,0.7
9.794,0.7
9.796,0.6
9.798,0.1
9.8,0.0
9.802,0.0
9.804,0.3
9.806000000000001,0.1
9.808,0.5
9.81,0.5
9.812,-0.3
9.814,-0.5
9.816,0.0
9.818,-0.4
9.82,-0.4
9.822000000000001,-0.3
9.824,-0.1
9.826,0.6
9.828,0.6
9.83,0.3
9.832,0.3
9.834,0.0
9.836,0.4
9.838000000000001,0.4
9.84,0.1
9.842,-0.2
9.844,0.1
9.846,-0.5
9.848,-0.1
9.85,-0.1
9.852,-0.1
9.854000000000001,-0.2
9.856,0.0
9.858,-0.1
9.86,-0.3
9.862,0.3
9.864,0.0
9.866,-0.6
9.868,0.4
9.870000000000001,0.0
9.872,-0.2
9.874,-0.2
9.876,0.5
9.878,-0.1
9.88,0.1
9.882,0.3
9.884,0.3
9.886000000000001,0.3
9.888,0.5
9.89,-0.1
9.892,-0.3
9.894,-0.4
9.896,0.2
9.898,0.2
9.9,-0.1
9.902000000000001,-0.2
9.904,0.3
9.906,0.0
9.908,0.6
9.91,0.7
9.912,0.4
9.914,0.7
9.916,0.5
9.918000000000001,0.4
9.92,0.4
9.922,0.7
9.924,0.6
9.926,0.4
9.928,0.8
9.93,0.8
9.932,0.5
9.934000000000001,0.9
9.936,0.6
9.938,0.3
9.94,0.2
9.942,0.6
9.944,1.3
9.946,1.0
9.948,1.1
9.950000000000001,1.0
9.952,0.7
9.954,0.4
9.956,0.6
9.958,-0.1
9.96,0.1
9.962,0.4
9.964,0.1
9.966000000000001,0.4
9.968,0.2
9.97,0.4
9.972,0.1
9.974,0.0
9.976,-0.2
9.978,0.2
9.98,0.3
9.982000000000001,-0.4
9.984,-0.4
9.986,-0.2
9.988,-0.2
9.99,0.0
9.992,-0.4
9.994,-0.1
9.996,-0.8
9.998,0.0
10.0,0.0
10.002,-0.1
10.004,-0.2
10.006,0.7
10.008000000000001,0.2
10.01,-0.1
10.012,-0.9
10.014,-0.9
10.016,-0.7
10.018,-1.0
10.02,-0.3
10.022,0.0
10.024000000000001,-0.1
10.026,0.6
10.028,0.3
10.03,0.2
10.032,0.1
10.034,-0.8
10.036,-1.1
10.038,-1.1
10.040000000000001,-0.8
10.042,-0.8
10.044,-0.6
10.046,-0.5
10.048,-0.6
10.05,-1.3
10.052,-1.5
10.054,-1.2
10.056000000000001,-2.6
10.058,-1.8
10.06,-0.6
10.062,0.4
10.064,1.7
10.066,3.7
10.068,5.1
10.07,6.3
10.072000000000001,8.0
10.074,8.8
10.076,7.8
10.078,7.5
10.08,6.5
10.082,5.3
10.084,4.8
10.086,5.4
10.088000000000001,4.1
10.09,2.3
10.092,-0.3
10.094,-2.7
10.096,-3.9
10.098,-3.3
10.1,-2.9
10.102,-2.6
10.104000000000001,-2.8
10.106,-2.1
10.108,-2.1
10.11,-2.3
10.112,-2.5
10.114,-1.8
10.116,-2.4
10.118,-1.7
10.120000000000001,-0.9
10.122,-0.7
10.124,-0.3
10.126,0.3
10.128,-0.4
10.13,0.1
10.132,0.0
10.134,0.2
10.136000000000001,-0.5
10.138,-0.1
10.14,0.4
10.142,0.1
10.144,0.2
10.146,0.9
10.148,0.6
10.15,0.4
10.152000000000001,0.1
10.154,-0.5
10.156,0.0
10.158,-0.1
10.16,0.3
10.162,0.3
10.164,0.3
10.166,1.1
10.168000000000001,0.8
10.17,0.1
10.172,0.0
10.174,0.3
10.176,-0.2
10.178,-0.1
10.18,0.1
10.182,0.5
10.184000000000001,0.4
10.186,0.7
10.188,0.7
10.19,0.5
10.192,0.5
10.194,1.1
10.196,0.4
10.198,0.4
10.200000000000001,0.3
10.202,0.2
10.204,1.1
10.206,1.4
10.208,1.3
10.21,1.4
10.212,0.9
10.214,0.6
10.216000000000001,0.8
10.218,1.0
10.22,0.7
10.222,1.0
10.224,1.7
10.226,1.8
10.228,1.7
10.23,1.4
10.232000000000001,1.2
10.234,1.2
10.236,1.2
10.238,1.2
10.24,0.9
10.242,1.1
10.244,1.6
10.246,1.9
10.248,1.8
10.25,2.4
10.252,2.5
10.254,2.5
10.256,1.6
10.258000000000001,2.0
10.26,2.3
10.262,2.6
10.264,2.8
10.266,2.8
10.268,2.4
10.27,3.1
10.272,2.7
10.274000000000001,3.4
10.276,3.3
10.278,3.2
10.28,3.6
10.282,3.0
10.284,3.4
10.286,3.6
10.288,3.7
10.290000000000001,4.0
10.292,4.4
10.294,4.1
10.296,4.2
10.298,4.3
10.3,4.7
10.302,4.9
10.304,5.1
10.306000000000001,5.1
10.308,4.8
10.31,4.4
10.312,5.2
10.314,5.1
10.316,5.1
10.318,5.1
10.32,5.3
10.322000000000001,5.2
10.324,5.5
10.326,5.1
10.328,5.1
10.33,5.2
10.332,5.4
10.334,5.2
10.336,5.0
10.338000000000001,5.2
10.34,5.2
10.342,4.5
10.344,4.4
10.346,4.2
10.348,3.5
10.35,3.5
10.352,3.5
10.354000000000001,2.8
10.356,2.8
10.358,3.1
10.36,2.7
10.362,2.1
10.364,2.7
10.366,1.9
10.368,1.4
10.370000000000001,1.2
10.372,1.8
10.374,0.6
10.376,0.5
10.378,0.5
10.38,0.8
10.382,0.7
10.384,1.2
10.386000000000001,1.3
10.388,0.7
10.39,0.4
10.392,0.9
10.394,0.1
10.396,0.4
10.398,0.4
10.4,0.6
10.402000000000001,0.2
10.404,0.7
10.406,0.1
10.408,0.0
10.41,0.1
10.412,0.2
10.414,-0.6
10.416,-0.4
10.418000000000001,0.0
10.42,0.7
10.422,0.4
10.424,0.5
10.426,0.7
10.428,0.2
10.43,0.0
10.432,-0.1
10.434000000000001,-0.7
10.436,-0.7
10.438,-0.1
10.44,0.0
10.442,-0.3
10.444,-0.1
10.446,-0.2
10.448,-0.2
10.450000000000001,-0.1
10.452,0.3
10.454,-0.4
10.456,-0.4
10.458,-0.6
10.46,-0.2
10.462,-0.2
10.464,0.5
10.466000000000001,-0.2
10.468,-0.1
10.47,0.3
10.472,0.2
10.474,-0.3
10.476,-0.2
10.478,0.5
10.48,0.4
10.482000000000001,0.3
10.484,0.4
10.486,0.6
10.488,0.6
10.49,0.7
10.492,0.5
10.494,0.5
10.496,0.5
10.498,0.5
10.5,0.3
10.502,0.2
10.504,0.6
10.506,0.2
10.508000000000001,-0.1
10.51,-0.1
10.512,0.1
10.514,0.1
10.516,0.2
10.518,0.3
10.52,0.3
10.522,0.8
10.524000000000001,0.4
10.526,-0.1
10.528,0.2
10.53,0.3
10.532,0.2
10.534,-0.2
10.536,-0.7
10.538,0.5
10.540000000000001,0.7
10.542,0.9
10.544,0.4
10.546,0.2
10.548,0.4
10.55,-0.2
10.552,0.2
10.554,-0.2
10.556000000000001,0.4
10.558,0.6
10.56,0.6
10.562,0.6
10.564,0.6
10.566,0.5
10.568,0.3
10.57,0.3
10.572000000000001,-0.3
10.574,0.1
10.576,0.0
10.578,0.3
10.58,0.5
10.582,0.8
10.584,0.8
10.586,0.4
10.588000000000001,-0.2
10.59,0.3
10.592,-0.1
10.594,-0.2
10.596,-0.2
10.598,0.4
10.6,-0.2
10.602,0.6
10.604000000000001,0.9
10.606,0.6
10.608,0.6
10.61,1.0
10.612,-0.1
10.614,-0.3
10.616,0.5
10.618,1.0
10.620000000000001,0.1
10.622,0.3
10.624,0.1
10.626,0.4
10.628,-0.2
10.63,-0.4
10.632,-0.7
10.634,-0.4
10.636000000000001,0.5
10.638,0.5
10.64,0.2
10.642,0.9
10.644,0.5
10.646,0.1
10.648,0.1
10.65,0.1
10.652000000000001,-0.3
10.654,-0.1
10.656,0.3
10.658,1.4
10.66,0.6
10.662,1.0
10.664,0.5
10.666,0.8
10.668000000000001,0.7
10.67,0.8
10.672,0.4
10.674,0.7
10.676,0.7
10.678,1.2
10.68,0.8
10.682,1.9
10.684000000000001,1.2
10.686,1.0
10.688,0.9
10.69,1.2
10.692,0.4
10.694,0.3
10.696,0.8
10.698,1.1
10.700000000000001,1.1
10.702,1.4
10.704,1.2
10.706,1.0
10.708,0.8
10.71,0.7
10.712,-0.2
10.714,-0.5
10.716000000000001,-0.2
10.718,-0.2
10.72,-0.5
10.722,0.1
10.724,-0.2
10.726,0.1
10.728,-0.3
10.73,-0.3
10.732000000000001,-0.3
10.734,-0.1
10.736,0.2
10.738,0.1
10.74,-0.6
10.742,-0.4
10.744,0.0
10.746,-0.3
10.748000000000001,-0.1
10.75,0.0
10.752,-0.6
10.754,-0.3
10.756,0.0
10.758000000000001,-0.2
10.76,0.5
10.762,0.6
10.764,-0.1
10.766,-0.3
10.768,-0.5
10.77,-0.4
10.772,-0.7
10.774000000000001,-0.2
10.776,-0.2
10.778,-0.2
10.78,-0.3
10.782,0.5
10.784,-0.3
10.786,-0.7
10.788,-0.8
10.790000000000001,-1.5
10.792,-1.9
10.794,-2.0
10.796,-2.0
10.798,-1.5
10.8,-0.5
10.802,0.4
10.804,1.4
10.806000000000001,2.8
10.808,4.0
10.81,5.6
10.812,6.8
10.814,8.7
10.816,10.0
10.818,9.7
10.82,9.5
10.822000000000001,7.9
10.824,6.8
10.826,6.9
10.828,5.6
10.83,3.1
10.832,1.4
10.834,-1.0
10.836,-2.8
10.838000000000001,-2.8
10.84,-2.0
10.842,-2.0
10.844,-2.3
10.846,-2.3
10.848,-2.3
10.85,-2.7
10.852,-2.0
10.854000000000001,-1.2
10.856,-1.0
10.858,-0.6
10.86,-0.5
10.862,0.3
10.864,0.3
10.866,0.0
10.868,0.0
10.870000000000001,0.0
10.872,0.1
10.874,0.0
10.876,0.2
10.878,0.2
10.88,1.0
10.882,1.0
10.884,0.7
10.886000000000001,0.5
10.888,0.8
10.89,0.0
10.892,0.1
10.894,0.1
10.896,0.6
10.898,0.7
10.9,1.3
10.902000000000001,0.5
10.904,0.5
10.906,0.4
10.908,0.8
10.91,0.5
10.912,0.5
10.914,0.0
10.916,0.5
10.918000000000001,0.2
10.92,0.3
10.922,0.1
10.924,0.4
10.926,0.2
10.928,0.9
10.93,0.2
10.932,0.3
10.934000000000001,0.4
10.936,1.0
10.938,0.4
10.94,0.4
10.942,0.7
10.944,1.1
10.946,1.0
10.948,1.0
10.950000000000001,0.7
10.952,1.0
10.954,0.9
10.956,1.9
10.958,1.7
10.96,1.7
10.962,1.5
10.964,0.9
10.966000000000001,0.9
10.968,1.1
10.97,1.1
10.972,1.3
10.974,1.7
10.976,2.2
10.978,1.9
10.98,2.3
10.982000000000001,2.2
10.984,2.0
10.986,1.9
10.988,1.9
10.99,1.3
10.992,1.6
10.994,1.9
10.996,2.4
10.998000000000001,2.5
11.0,3.0
11.002,2.7
11.004,2.5
11.006,2.2
11.008000000000001,2.9
11.01,2.6
11.012,2.9
11.014,3.0
11.016,2.7
11.018,3.0
11.02,3.8
11.022,3.6
11.024000000000001,3.7
11.026,3.7
11.028,3.3
11.03,3.3
11.032,3.6
11.034,4.0
11.036,4.3
11.038,4.5
11.040000000000001,4.6
11.042,4.6
11.044,5.0
11.046,5.0
11.048,5.0
11.05,4.4
11.052,4.9
11.054,4.3
11.056000000000001,4.4
11.058,4.9
11.06,5.6
11.062,5.4
11.064,5.4
11.066,5.4
11.068,5.2
11.07,4.7
11.072000000000001,4.8
11.074,4.8
11.076,4.8
11.078,5.2
11.08,4.7
11.082,4.7
11.084,4.8
11.086,4.8
11.088000000000001,4.1
11.09,3.2
11.092,3.1
11.094,3.3
11.096,3.2
11.098,2.9
11.1,2.9
11.102,2.9
11.104000000000001,2.0
11.106,2.0
11.108,1.7
11.11,1.5
11.112,1.6
11.114,1.5
11.116,1.0
11.118,1.0
11.120000000000001,0.9
11.122,0.9
11.124,0.9
11.126,0.8
11.128,0.2
11.13,0.0
11.132,0.3
11.134,0.3
11.136000000000001,0.4
11.138,0.3
11.14,0.8
11.142,-0.3
11.144,-0.5
11.146,-0.2
11.148,-0.7
11.15,-0.2
11.152000000000001,0.3
11.154,0.7
11.156,0.1
11.158,0.4
11.16,0.5
11.162,-0.4
11.164,-0.5
11.166,-0.4
11.168000000000001,-1.0
11.17,-0.8
11.172,-0.4
11.174,0.0
11.176,-0.3
11.178,0.7
11.18,0.5
11.182,0.2
11.184000000000001,-0.2
11.186,-0.2
11.188,-0.8
11.19,-0.7
11.192,-0.7
11.194,-0.5
11.196,-0.4
11.198,0.2
11.200000000000001,0.0
11.202,0.1
11.204,0.1
11.206,1.0
11.208,0.4
11.21,-0.3
11.212,-0.3
11.214,-0.3
11.216000000000001,-0.6
11.218,0.2
11.22,0.1
11.222,0.2
11.224,0.1
11.226,0.3
11.228,-0.3
11.23,-0.5
11.232000000000001,-0.5
11.234,0.6
11.236,-0.1
11.238,0.4
11.24,-0.2
11.242,-0.6
11.244,-0.7
11.246,-0.2
11.248000000000001,-0.5
11.25,-0.2
11.252,-0.2
11.254,0.0
11.256,0.2
11.258000000000001,0.6
11.26,0.3
11.262,-0.2
11.264,-0.5
11.266,0.1
11.268,-0.6
11.27,-0.3
11.272,-0.1
11.274000000000001,0.1
11.276,0.1
11.278,0.1
11.28,0.2
11.282,0.6
11.284,0.0
11.286,0.1
11.288,-0.2
11.290000000000001,0.0
11.292,0.0
11.294,0.1
11.296,0.0
11.298,0.7
11.3,0.6
11.302,0.2
11.304,0.2
11.306000000000001,0.4
11.308,-0.5
11.31,-0.1
11.312,-0.1
11.314,0.4
11.316,0.3
11.318,0.1
11.32,0.5
11.322000000000001,0.2
11.324,-0.4
11.326,-0.1
11.328,-0.2
11.33,-0.2
11.332,0.3
11.334,0.0
11.336,0.5
11.338000000000001,0.2
11.34,0.2
11.342,0.2
11.344,-0.2
11.346,0.1
11.348,-0.5
11.35,-0.3
11.352,-0.4
11.354000000000001,-0.4
11.356,0.3
11.358,0.7
11.36,0.7
11.362,0.4
11.364,0.0
11.366,-0.1
11.368,-0.4
11.370000000000001,-0.2
11.372,-0.2
11.374,0.1
11.376,0.6
11.378,0.1
11.38,-0.3
11.382,-0.1
11.384,-0.5
11.386000000000001,-0.1
11.388,0.0
11.39,-0.1
11.392,-0.1
11.394,0.1
11.396,0.6
11.398,0.3
11.4,-0.1
11.402000000000001,-0.1
11.404,0.3
11.406,-1.1
11.408,-1.0
11.41,-0.3
11.412,-0.3
11.414,-0.3
11.416,0.9
11.418000000000001,1.0
11.42,0.8
11.422,0.4
11.424,0.2
11.426,0.3
11.428,0.7
11.43,-0.1
11.432,0.1
11.434000000000001,0.2
11.436,0.7
11.438,0.8
11.44,0.5
11.442,0.7
11.444,0.6
11.446,-0.1
11.448,-0.1
11.450000000000001,-0.1
11.452,0.4
11.454,0.3
11.456,1.1
11.458,0.0
11.46,0.1
11.462,-0.2
11.464,0.6
11.466000000000001,0.3
11.468,-0.1
11.47,-0.8
11.472,-0.4
11.474,-0.6
11.476,0.0
11.478,-0.2
11.48,-0.1
11.482000000000001,-0.8
11.484,-0.1
11.486,-0.7
11.488,-0.7
11.49,-0.7
11.492,-0.5
11.494,-0.9
11.496,-0.2
11.498000000000001,-0.5
11.5,-0.2
11.502,-0.7
11.504,-0.5
11.506,-0.8
11.508000000000001,-0.7
11.51,-0.5
11.512,-0.3
11.514000000000001,-1.0
11.516,-0.4
11.518,-0.4
11.52,0.3
11.522,-1.0
11.524000000000001,-1.1
11.526,-1.0
11.528,-0.7
11.53,-0.2
11.532,-0.1
11.534,-0.4
11.536,-0.1
11.538,-0.1
11.540000000000001,-0.6
11.542,-1.2
11.544,-1.3
11.546,-2.2
11.548,-2.4
11.55,-1.8
11.552,-1.8
11.554,-2.0
11.556000000000001,-1.7
11.558,-1.4
11.56,-0.9
11.562,-0.2
11.564,1.6
11.566,2.0
11.568,4.2
11.57,6.3
11.572000000000001,8.7
11.574,9.4
11.576,9.9
11.578,9.7
11.58,8.1
11.582,5.3
11.584,5.2
11.586,5.2
11.588000000000001,3.9
11.59,2.6
11.592,0.6
11.594,-1.8
11.596,-2.3
11.598,-2.7
11.6,-3.4
11.602,-3.3
11.604000000000001,-3.5
11.606,-3.6
11.608,-2.8
11.61,-2.0
11.612,-1.5
11.614,-1.2
11.616,-0.7
11.618,-0.3
11.620000000000001,-0.6
11.622,-0.8
11.624,-0.7
11.626,-1.3
11.628,-1.3
11.63,0.1
11.632,0.1
11.634,0.9
11.636000000000001,0.7
11.638,0.0
11.64,-0.1
11.642,-0.5
11.644,-0.5
11.646,-0.3
11.648,-0.5
11.65,0.6
11.652000000000001,0.9
11.654,0.7
11.656,0.4
11.658,0.0
11.66,-0.2
11.662,-0.2
11.664,-0.6
11.666,-0.3
11.668000000000001,-0.3
11.67,0.3
11.672,0.7
11.674,1.1
11.676,0.8
11.678,0.7
11.68,0.6
11.682,0.5
11.684000000000001,0.2
11.686,0.0
11.688,-0.2
11.69,0.3
11.692,0.3
11.694,0.8
11.696,0.6
11.698,0.3
11.700000000000001,0.5
11.702,0.5
11.704,0.3
11.706,0.7
11.708,0.7
11.71,0.7
11.712,0.4
11.714,1.0
11.716000000000001,1.1
11.718,0.8
11.72,0.8
11.722,0.8
11.724,0.3
11.726,0.7
11.728,0.5
11.73,0.7
11.732000000000001,0.6
11.734,1.4
11.736,1.7
11.738,1.1
11.74,1.7
11.742,1.6
11.744,1.2
11.746,1.5
11.748000000000001,1.6
11.75,1.7
11.752,1.4
11.754,2.3
11.756,2.3
11.758000000000001,2.4
11.76,1.8
11.762,2.3
11.764000000000001,2.1
11.766,2.3
11.768,2.2
11.77,2.7
11.772,2.6
11.774000000000001,3.5
11.776,3.3
11.778,2.7
11.78,2.9
11.782,2.7
11.784,2.8
11.786,3.2
11.788,3.7
11.790000000000001,3.7
11.792,3.4
11.794,4.6
11.796,4.3
11.798,4.1
11.8,4.3
11.802,4.5
11.804,3.3
11.806000000000001,3.9
11.808,4.4
11.81,4.7
11.812,4.9
11.814,5.9
11.816,5.9
11.818,5.7
11.82,5.0
11.822000000000001,5.0
11.824,4.3
11.826,4.4
11.828,4.1
11.83,4.6
11.832,4.1
11.834,5.7
11.836,5.2
11.838000000000001,4.8
11.84,4.7
11.842,4.4
11.844,3.2
11.846,2.9
11.848,2.9
11.85,3.5
11.852,2.7
11.854000000000001,3.7
11.856,2.7
11.858,3.0
11.86,2.4
11.862,2.4
11.864,2.0
11.866,1.0
11.868,1.0
11.870000000000001,1.2
11.872,1.0
11.874,1.4
11.876,1.2
11.878,0.3
11.88,0.4
11.882,0.4
11.884,-0.3
11.886000000000001,-0.1
11.888,0.1
11.89,0.1
11.892,0.3
11.894,0.8
11.896,0.4
11.898,0.2
11.9,0.0
11.902000000000001,0.0
11.904,-0.5
11.906,-0.2
11.908,-0.2
11.91,-0.3
11.912,-0.3
11.914,0.1
11.916,0.0
11.918000000000001,-0.1
11.92,-0.5
11.922,-0.9
11.924,-0.8
11.926,-0.1
11.928,-0.1
11.93,-0.1
11.932,0.0
11.934000000000001,-0.1
11.936,-0.5
11.938,-0.6
11.94,-0.3
11.942,-0.2
11.944,-0.5
11.946,-0.5
11.948,-0.5
11.950000000000001,-0.4
11.952,-0.4
11.954,-0.3
11.956,-0.4
11.958,-0.4
11.96,0.2
11.962,-0.3
11.964,-0.3
11.966000000000001,-0.2
11.968,-0.3
11.97,-0.6
11.972,-0.5
11.974,-0.2
11.976,-0.7
11.978,-0.6
11.98,-0.1
11.982000000000001,-0.7
11.984,-0.9
11.986,0.0
11.988,-0.1
11.99,-0.3
11.992,0.0
11.994,-0.2
11.996,-0.3
11.998000000000001,-0.5
12.0,0.0
12.002,-0.1
12.004,-0.2
12.006,-0.4
12.008000000000001,0.0
12.01,-0.2
12.012,0.2
12.014000000000001,0.2
12.016,-0.8
12.018,-1.3
12.02,-0.7
12.022,-0.7
12.024000000000001,-0.5
12.026,-0.3
12.028,0.2
12.030000000000001,0.2
12.032,0.5
12.034,-0.3
12.036,-0.5
12.038,-0.7
12.040000000000001,-0.3
12.042,-0.7
12.044,-0.5
12.046,-0.3
12.048,0.2
12.05,-0.3
12.052,0.0
12.054,-0.2
12.056000000000001,-0.1
12.058,-0.2
12.06,0.3
12.062,0.1
12.064,0.1
12.066,0.1
12.068,0.2
12.07,0.2
12.072000000000001,0.6
12.074,0.1
12.076,-0.5
12.078,-0.2
12.08,0.0
12.082,-1.0
12.084,-1.0
12.086,-0.6
12.088000000000001,0.3
12.09,-0.3
12.092,0.3
12.094,0.5
12.096,0.0
12.098,-0.5
12.1,-0.5
12.102,-1.2
12.104000000000001,-0.7
12.106,-0.2
12.108,0.3
12.11,0.2
12.112,0.4
12.114,0.6
12.116,0.3
12.118,-0.1
12.120000000000001,0.2
12.122,0.0
12.124,-0.7
12.126,0.0
12.128,0.3
12.13,-0.1
12.132,0.1
12.134,-0.2
12.136000000000001,-0.2
12.138,-0.1
12.14,-0.2
12.142,-0.3
12.144,-0.1
12.146,0.4
12.148,1.0
12.15,0.5
12.152000000000001,0.9
12.154,0.2
12.156,0.1
12.158,-0.3
12.16,-0.3
12.162,-0.7
12.164,-0.3
12.166,-0.3
12.168000000000001,-0.1
12.17,0.8
12.172,1.1
12.174,0.8
12.176,-0.5
12.178,-0.6
12.18,0.4
12.182,-0.3
12.184000000000001,0.5
12.186,1.3
12.188,1.1
12.19,1.0
12.192,1.5
12.194,1.1
12.196,1.0
12.198,0.6
12.200000000000001,0.6
12.202,0.6
12.204,0.6
12.206,0.7
12.208,1.1
12.21,1.0
12.212,1.5
12.214,1.7
12.216000000000001,1.6
12.218,1.0
12.22,0.5
12.222,0.1
12.224,0.8
12.226,0.9
12.228,0.0
12.23,0.7
12.232000000000001,0.9
12.234,1.1
12.236,0.6
12.238,0.4
12.24,0.3
12.242,0.0
12.244,0.1
12.246,0.4
12.248000000000001,-0.1
12.25,0.1
12.252,-0.3
12.254,-0.2
12.256,-0.5
12.258000000000001,-0.3
12.26,-0.9
12.262,-0.6
12.264000000000001,-0.1
12.266,-0.1
12.268,-0.2
12.27,0.0
12.272,0.1
12.274000000000001,0.1
12.276,-0.1
12.278,-0.7
12.280000000000001,-0.6
12.282,-0.6
12.284,-0.6
12.286,0.0
12.288,-0.6
12.290000000000001,0.3
12.292,-0.5
12.294,-0.2
12.296,-0.4
12.298,-0.3
12.3,-0.8
12.302,-0.8
12.304,-0.4
12.306000000000001,-0.4
12.308,-0.4
12.31,-0.1
12.312,-0.5
12.314,-1.1
12.316,-1.5
12.318,-1.4
12.32,-2.2
12.322000000000001,-2.1
12.324,-1.8
12.326,-1.3
12.328,-0.6
12.33,1.9
12.332,3.7
12.334,5.5
12.336,6.5
12.338000000000001,8.4
12.34,9.0
12.342,9.3
12.344,9.1
12.346,8.2
12.348,6.1
12.35,6.5
12.352,6.5
12.354000000000001,5.5
12.356,2.9
12.358,1.7
12.36,-1.9
12.362,-3.5
12.364,-3.4
12.366,-3.2
12.368,-3.0
12.370000000000001,-2.4
12.372,-2.6
12.374,-2.7
12.376,-2.3
12.378,-0.8
12.38,-1.8
12.382,-1.2
12.384,-0.4
12.386000000000001,-0.4
12.388,-0.4
12.39,0.0
12.392,0.2
12.394,0.3
12.396,0.2
12.398,0.3
12.4,-0.6
12.402000000000001,-0.6
12.404,-0.5
12.406,0.4
12.408,0.3
12.41,0.9
12.412,0.6
12.414,0.5
12.416,0.4
12.418000000000001,0.7
12.42,0.2
12.422,0.7
12.424,0.7
12.426,0.2
12.428,0.3
12.43,1.0
12.432,0.4
12.434000000000001,0.2
12.436,0.3
12.438,0.7
12.44,0.2
12.442,0.2
12.444,0.8
12.446,0.8
12.448,0.9
12.450000000000001,1.0
12.452,0.9
12.454,0.5
12.456,0.9
12.458,0.8
12.46,-0.2
12.462,-0.2
12.464,0.3
12.466000000000001,0.8
12.468,0.7
12.47,2.0
12.472,2.0
12.474,1.3
12.476,1.4
12.478,1.2
12.48,0.7
12.482000000000001,0.7
12.484,0.8
12.486,1.0
12.488,1.1
12.49,1.7
12.492,1.1
12.494,1.7
12.496,1.9
12.498000000000001,0.9
12.5,0.8
12.502,0.6
12.504,1.4
12.506,1.4
12.508000000000001,2.0
12.51,1.9
12.512,1.9
12.514000000000001,2.0
12.516,2.1
12.518,1.8
12.52,1.8
12.522,2.1
12.524000000000001,1.8
12.526,1.9
12.528,2.6
12.530000000000001,2.3
12.532,2.3
12.534,2.2
12.536,2.4
12.538,2.1
12.540000000000001,2.4
12.542,2.5
12.544,3.2
12.546,3.0
12.548,3.6
12.55,3.8
12.552,3.2
12.554,3.3
12.556000000000001,3.6
12.558,3.2
12.56,3.3
12.562,3.7
12.564,4.8
12.566,5.0
12.568,5.0
12.57,4.8
12.572000000000001,4.7
12.574,4.7
12.576,4.4
12.578,4.5
12.58,4.5
12.582,4.7
12.584,4.9
12.586,4.9
12.588000000000001,6.1
12.59,5.6
12.592,5.4
12.594,5.5
12.596,4.7
12.598,3.9
12.6,4.6
12.602,4.6
12.604000000000001,5.1
12.606,5.1
12.608,5.8
12.61,5.2
12.612,4.9
12.614,4.1
12.616,3.3
12.618,2.6
12.620000000000001,2.6
12.622,2.4
12.624,2.7
12.626,2.1
12.628,2.8
12.63,2.4
12.632,2.7
12.634,2.4
12.636000000000001,2.2
12.638,1.1
12.64,0.8
12.642,0.8
12.644,1.0
12.646,0.5
12.648,1.3
12.65,1.6
12.652000000000001,1.2
12.654,0.7
12.656,1.2
12.658,0.2
12.66,-0.3
12.662,0.1
12.664,0.2
12.666,-0.4
12.668000000000001,0.2
12.67,0.5
12.672,0.5
12.674,0.3
12.676,0.4
12.678,-0.4
12.68,0.0
12.682,0.1
12.684000000000001,0.0
12.686,-0.7
12.688,0.7
12.69,0.2
12.692,0.2
12.694,0.2
12.696,1.1
12.698,0.5
12.700000000000001,-0.3
12.702,-0.6
12.704,-0.6
12.706,-0.6
12.708,-0.1
12.71,-0.1
12.712,-0.4
12.714,-0.4
12.716000000000001,0.0
12.718,-0.6
12.72,0.1
12.722,0.1
12.724,0.6
12.726,0.1
12.728,0.4
12.73,-0.1
12.732000000000001,-0.1
12.734,0.0
12.736,0.0
12.738,-0.7
12.74,-0.2
12.742,0.4
12.744,0.4
12.746,0.1
12.748000000000001,-0.1
12.75,0.0
12.752,0.3
12.754,-0.2
12.756,-0.2
12.758000000000001,-0.2
12.76,-0.1
12.762,0.4
12.764000000000001,1.2
12.766,0.9
12.768,0.9
12.77,0.2
12.772,0.3
12.774000000000001,0.0
12.776,0.0
12.778,-0.1
12.780000000000001,-0.2
12.782,0.3
12.784,0.5
12.786,0.5
12.788,0.5
12.790000000000001,0.6
12.792,0.1
12.794,0.4
12.796000000000001,0.5
12.798,-0.1
12.8,-0.1
12.802,0.4
12.804,0.3
12.806000000000001,1.0
12.808,1.0
12.81,0.6
12.812,0.3
12.814,-0.3
12.816,-0.5
12.818,-0.2
12.82,0.2
12.822000000000001,0.0
12.824,-0.1
12.826,0.7
12.828,0.6
12.83,0.5
12.832,0.4
12.834,0.2
12.836,0.1
12.838000000000001,-0.1
12.84,-0.1
12.842,0.5
12.844,0.4
12.846,0.8
12.848,0.4
12.85,0.2
12.852,0.4
12.854000000000001,0.4
12.856,0.0
12.858,-0.1
12.86,-0.1
12.862,0.2
12.864,0.1
12.866,0.2
12.868,0.2
12.870000000000001,-0.3
12.872,-0.6
12.874,0.0
12.876,-0.3
12.878,0.0
12.88,0.1
12.882,0.4
12.884,0.1
12.886000000000001,0.4
12.888,0.4
12.89,0.0
12.892,-0.7
12.894,0.0
12.896,-0.3
12.898,-0.3
12.9,0.0
12.902000000000001,0.0
12.904,0.0
12.906,0.9
12.908,0.7
12.91,0.6
12.912,0.3
12.914,0.4
12.916,-0.6
12.918000000000001,-0.6
12.92,-0.2
12.922,-0.2
12.924,-0.2
12.926,0.6
12.928,0.0
12.93,0.1
12.932,0.1
12.934000000000001,0.2
12.936,0.2
12.938,-0.3
12.94,0.1
12.942,0.7
12.944,0.2
12.946,0.8
12.948,0.5
12.950000000000001,0.2
12.952,-0.4
12.954,0.3
12.956,-0.8
12.958,-0.5
12.96,-0.1
12.962,0.6
12.964,0.5
12.966000000000001,0.7
12.968,0.2
12.97,0.2
12.972,0.1
12.974,0.3
12.976,-0.1
12.978,-0.2
12.98,0.3
12.982000000000001,0.3
12.984,0.6
12.986,1.0
12.988,0.6
12.99,0.1
12.992,0.4
12.994,0.7
12.996,0.2
12.998000000000001,0.8
13.0,1.1
13.002,1.2
13.004,0.7
13.006,1.2
13.008000000000001,1.4
13.01,1.1
13.012,0.3
13.014000000000001,1.2
13.016,0.0
13.018,0.4
13.02,0.6
13.022,0.7
13.024000000000001,0.8
13.026,1.2
13.028,0.5
13.030000000000001,0.5
13.032,1.0
13.034,0.7
13.036,0.3
13.038,0.3
13.040000000000001,0.3
13.042,0.1
13.044,0.5
13.046000000000001,0.7
13.048,0.0
13.05,-0.8
13.052,-0.1
13.054,-0.1
13.056000000000001,0.0
13.058,-0.6
13.06,0.0
13.062,0.0
13.064,0.1
13.066,0.1
13.068,-0.1
13.07,-0.1
13.072000000000001,-0.2
13.074,-0.3
13.076,-0.6
13.078,-0.6
13.08,-0.2
13.082,-0.3
13.084,0.2
13.086,0.5
13.088000000000001,-0.5
13.09,-0.5
13.092,-0.5
13.094,-0.5
13.096,-0.2
13.098,-0.2
13.1,0.1
13.102,0.0
13.104000000000001,0.1
13.106,0.1
13.108,-0.2
13.11,-0.4
13.112,-0.9
13.114,-1.5
13.116,-1.3
13.118,-0.9
13.120000000000001,-1.1
13.122,-1.4
13.124,-1.3
13.126,-1.5
13.128,-0.5
13.13,0.0
13.132,0.8
13.134,2.0
13.136000000000001,3.8
13.138,4.7
13.14,6.6
13.142,9.0
13.144,9.8
13.146,9.2
13.148,8.5
13.15,6.3
13.152000000000001,6.0
13.154,5.2
13.156,4.7
13.158,3.1
13.16,2.4
13.162,-0.7
13.164,-1.8
13.166,-2.4
13.168000000000001,-2.6
13.17,-3.3
13.172,-3.1
13.174,-3.7
13.176,-3.7
13.178,-2.9
13.18,-2.2
13.182,-1.7
13.184000000000001,-1.0
13.186,-0.8
13.188,-0.5
13.19,-1.1
13.192,-0.2
13.194,-0.8
13.196,-0.4
13.198,-0.2
13.200000000000001,-0.3
13.202,-0.4
13.204,0.5
13.206,0.5
13.208,0.1
13.21,-0.1
13.212,0.2
13.214,-0.8
13.216000000000001,-0.2
13.218,-0.4
13.22,-0.1
13.222,0.2
13.224,1.0
13.226,0.9
13.228,0.8
13.23,0.5
13.232000000000001,0.5
13.234,-0.2
13.236,-0.1
13.238,0.4
13.24,0.8
13.242,0.3
13.244,0.9
13.246,1.0
13.248000000000001,1.0
13.25,0.8
13.252,1.1
13.254,-0.2
13.256,0.4
13.258000000000001,0.8
13.26,1.4
13.262,0.8
13.264000000000001,1.1
13.266,1.5
13.268,1.1
13.27,1.1
13.272,1.4
13.274000000000001,0.4
13.276,0.5
13.278,0.6
13.280000000000001,1.4
13.282,1.4
13.284,1.8
13.286,1.9
13.288,2.2
13.290000000000001,1.6
13.292,1.1
13.294,0.5
13.296000000000001,0.7
13.298,1.5
13.3,2.1
13.302,1.9
13.304,2.6
13.306000000000001,2.2
13.308,2.1
13.31,1.9
13.312000000000001,1.9
13.314,1.4
13.316,1.9
13.318,2.1
13.32,2.4
13.322000000000001,2.1
13.324,2.2
13.326,2.3
13.328,2.0
13.33,2.2
13.332,2.3
13.334,1.3
13.336,2.5
13.338000000000001,2.8
13.34,2.6
13.342,3.3
13.344,4.0
13.346,3.6
13.348,3.5
13.35,3.5
13.352,3.5
13.354000000000001,3.5
13.356,3.9
13.358,3.9
13.36,3.9
13.362,4.1
13.364,4.2
13.366,4.5
13.368,4.4
13.370000000000001,4.8
13.372,4.8
13.374,4.9
13.376,4.9
13.378,4.9
13.38,5.0
13.382,4.4
13.384,5.0
13.386000000000001,5.3
13.388,5.3
13.39,5.3
13.392,4.5
13.394,4.5
13.396,4.7
13.398,5.6
13.4,5.7
13.402000000000001,5.7
13.404,5.0
13.406,4.9
13.408,4.9
13.41,4.6
13.412,4.8
13.414,4.4
13.416,4.0
13.418000000000001,4.3
13.42,3.8
13.422,4.4
13.424,3.7
13.426,2.8
13.428,2.7
13.43,3.2
13.432,2.7
13.434000000000001,2.3
13.436,2.5
13.438,1.9
13.44,1.6
13.442,2.3
13.444,1.2
13.446,1.1
13.448,1.0
13.450000000000001,0.6
13.452,0.4
13.454,0.5
13.456,0.5
13.458,0.6
13.46,0.4
13.462,0.5
13.464,0.1
13.466000000000001,0.2
13.468,0.1
13.47,0.3
13.472,-0.8
13.474,-0.4
13.476,-0.1
13.478,0.9
13.48,-0.1
13.482000000000001,0.8
13.484,0.7
13.486,-0.1
13.488,-0.1
13.49,-0.1
13.492,-0.1
13.494,-0.1
13.496,0.2
13.498000000000001,0.1
13.5,0.3
13.502,0.7
13.504,0.1
13.506,-0.2
13.508000000000001,-0.6
13.51,-0.1
13.512,-0.5
13.514000000000001,-0.4
13.516,-0.4
13.518,-0.2
13.52,-0.6
13.522,-0.2
13.524000000000001,-0.1
13.526,-0.1
13.528,-0.4
13.530000000000001,-0.4
13.532,-1.1
13.534,-0.8
13.536,-0.8
13.538,-0.1
13.540000000000001,-0.8
13.542,-0.1
13.544,-0.2
13.546000000000001,-0.3
13.548,-0.5
13.55,-0.4
13.552,-0.5
13.554,-0.5
13.556000000000001,-0.1
13.558,0.0
13.56,-0.4
13.562000000000001,-0.1
13.564,0.0
13.566,-0.2
13.568,0.0
13.57,0.0
13.572000000000001,0.0
13.574,-0.3
13.576,-0.3
13.578,0.0
13.58,0.0
13.582,0.0
13.584,0.0
13.586,-1.0
13.588000000000001,-1.0
13.59,-0.4
13.592,-0.6
13.594,-0.4
13.596,-0.3
13.598,0.6
13.6,0.4
13.602,0.5
13.604000000000001,0.7
13.606,0.1
13.608,-0.3
13.61,-0.3
13.612,0.0
13.614,0.0
13.616,0.1
13.618,0.0
13.620000000000001,0.0
13.622,0.7
13.624,0.6
13.626,0.1
13.628,0.2
13.63,-0.4
13.632,0.1
13.634,-0.5
13.636000000000001,-0.5
13.638,0.3
13.64,0.9
13.642,0.9
13.644,0.3
13.646,-0.4
13.648,0.0
13.65,-0.3
13.652000000000001,-0.1
13.654,-0.5
13.656,0.3
13.658,0.3
13.66,0.3
13.662,0.0
13.664,-0.3
13.666,0.6
13.668000000000001,-0.3
13.67,-0.5
13.672,-0.6
13.674,-0.4
13.676,-0.2
13.678,-0.2
13.68,0.4
13.682,0.5
13.684000000000001,0.1
13.686,0.0
13.688,0.2
13.69,-0.3
13.692,-0.7
13.694,-0.1
13.696,0.2
13.698,0.2
13.700000000000001,0.7
13.702,0.5
13.704,0.2
13.706,-0.3
13.708,0.7
13.71,0.1
13.712,-0.2
13.714,0.0
13.716000000000001,0.5
13.718,0.2
13.72,0.4
13.722,0.3
13.724,0.3
13.726,0.2
13.728,-0.3
13.73,-0.1
13.732000000000001,0.0
13.734,0.0
13.736,0.1
13.738,0.0
13.74,0.5
13.742,0.5
13.744,0.8
13.746,0.0
13.748000000000001,0.3
13.75,0.6
13.752,0.6
13.754,0.7
13.756,0.9
13.758000000000001,0.7
13.76,1.1
13.762,0.5
13.764000000000001,0.6
13.766,1.0
13.768,1.1
13.77,0.5
13.772,0.5
13.774000000000001,1.1
13.776,1.5
13.778,1.3
13.780000000000001,2.3
13.782,1.6
13.784,0.8
13.786,0.4
13.788,1.0
13.790000000000001,0.6
13.792,0.4
13.794,0.5
13.796000000000001,0.7
13.798,0.3
13.8,1.0
13.802,0.6
13.804,0.0
13.806000000000001,-0.2
13.808,0.6
13.81,-1.0
13.812000000000001,-0.8
13.814,-0.8
13.816,-0.7
13.818,-0.3
13.82,1.1
13.822000000000001,0.9
13.824,0.2
13.826,0.0
13.828,0.2
13.83,-0.9
13.832,-1.1
13.834,-0.9
13.836,-0.2
13.838000000000001,-0.9
13.84,0.3
13.842,0.2
13.844,-0.1
13.846,0.0
13.848,0.0
13.85,-0.5
13.852,-0.5
13.854000000000001,-0.6
13.856,-0.3
13.858,-0.4
13.86,0.3
13.862,0.3
13.864,-0.6
13.866,-0.6
13.868,-0.7
13.870000000000001,-1.1
13.872,-0.5
13.874,0.0
13.876,-0.6
13.878,-0.9
13.88,-0.4
13.882,-1.0
13.884,-1.3
13.886000000000001,-1.5
13.888,-1.5
13.89,-2.3
13.892,-2.4
13.894,-1.2
13.896,0.5
13.898,1.7
13.9,2.4
13.902000000000001,2.8
13.904,4.3
13.906,6.0
13.908,7.4
13.91,8.0
13.912,7.5
13.914,7.2
13.916,6.4
13.918000000000001,5.5
13.92,4.9
13.922,4.6
13.924,2.6
13.926,0.7
13.928,-1.9
13.93,-3.5
13.932,-3.4
13.934000000000001,-3.0
13.936,-2.4
13.938,-2.4
13.94,-2.4
13.942,-3.4
13.944,-3.4
13.946,-3.1
13.948,-2.6
13.950000000000001,-2.6
13.952,-2.6
13.954,-1.6
13.956,-1.1
13.958,0.0
13.96,0.0
13.962,-0.5
13.964,-0.7
13.966000000000001,-0.7
13.968,-0.6
13.97,-0.6
13.972,-0.5
13.974,0.2
13.976,0.2
13.978,0.1
13.98,0.4
13.982000000000001,0.0
13.984,-0.1
13.986,0.0
13.988,-0.2
13.99,-0.2
13.992,-0.1
13.994,0.4
13.996,-0.1
13.998000000000001,0.6
14.0,0.6
14.002,0.4
14.004,0.4
14.006,0.2
14.008000000000001,-0.6
14.01,-0.4
14.012,-0.4
14.014000000000001,0.6
14.016,0.6
14.018,1.2
14.02,1.0
14.022,0.9
14.024000000000001,0.2
14.026,0.6
14.028,-0.2
14.030000000000001,-0.2
14.032,0.0
14.034,0.5
14.036,0.3
14.038,1.3
14.040000000000001,0.9
14.042,0.9
14.044,0.8
14.046000000000001,0.5
14.048,0.0
14.05,0.4
14.052,0.7
14.054,1.1
14.056000000000001,0.9
14.058,1.5
14.06,1.4
14.062000000000001,1.4
14.064,1.2
14.066,1.6
14.068,1.1
14.07,0.6
14.072000000000001,0.8
14.074,1.2
14.076,1.0
14.078000000000001,2.0
14.08,2.0
14.082,2.3
14.084,1.8
14.086,1.7
14.088000000000001,1.3
14.09,1.3
14.092,1.8
14.094,2.0
14.096,1.9
14.098,2.4
14.1,2.7
14.102,2.3
14.104000000000001,2.0
14.106,2.5
14.108,2.7
14.11,2.5
14.112,2.2
14.114,2.7
14.116,2.9
14.118,3.8
14.120000000000001,3.6
14.122,4.0
14.124,3.9
14.126,4.0
14.128,3.6
14.13,3.4
14.132,3.9
14.134,4.9
14.136000000000001,4.7
14.138,5.3
14.14,4.8
14.142,4.5
14.144,4.3
14.146,4.6
14.148,4.5
14.15,4.8
14.152000000000001,4.8
14.154,5.1
14.156,5.1
14.158,5.1
14.16,5.6
14.162,5.0
14.164,4.9
14.166,5.2
14.168000000000001,4.7
14.17,4.6
14.172,4.8
14.174,4.9
14.176,4.6
14.178,4.7
14.18,4.2
14.182,3.5
14.184000000000001,3.6
14.186,3.2
14.188,2.7
14.19,2.8
14.192,2.7
14.194,2.6
14.196,2.6
14.198,2.9
14.200000000000001,2.3
14.202,1.4
14.204,0.8
14.206,1.3
14.208,1.4
14.21,1.4
14.212,1.3
14.214,1.3
14.216000000000001,1.1
14.218,0.6
14.22,0.6
14.222,0.3
14.224,0.6
14.226,0.4
14.228,0.2
14.23,0.1
14.232000000000001,0.4
14.234,0.6
14.236,0.6
14.238,0.5
14.24,0.0
14.242,-0.3
14.244,-0.3
14.246,-0.4
14.248000000000001,-0.2
14.25,-0.1
14.252,0.4
14.254,0.1
14.256,0.6
14.258000000000001,0.6
14.26,0.7
14.262,0.1
14.264000000000001,0.0
14.266,-0.4
14.268,0.0
14.27,-0.5
14.272,-0.6
14.274000000000001,-0.6
14.276,0.1
14.278,0.3
14.280000000000001,0.3
14.282,-0.2
14.284,-0.4
14.286,-0.7
14.288,-0.6
14.290000000000001,-0.5
14.292,-0.1
14.294,-0.6
14.296000000000001,-0.3
14.298,-0.1
14.3,-0.2
14.302,-0.3
14.304,0.2
14.306000000000001,-0.3
14.308,-0.2
14.31,0.0
14.312000000000001,0.2
14.314,-0.4
14.316,0.6
14.318,-0.4
14.32,-0.9
14.322000000000001,-0.4
14.324,0.1
14.326,0.0
14.328000000000001,-0.2
14.33,0.0
14.332,0.2
14.334,-0.6
14.336,0.2
14.338000000000001,0.2
14.34,0.2
14.342,0.4
14.344,0.5
14.346,-0.2
14.348,0.3
14.35,0.3
14.352,0.8
14.354000000000001,0.1
14.356,0.4
14.358,0.3
14.36,0.3
14.362,0.0
14.364,0.1
14.366,-0.3
14.368,-0.4
14.370000000000001,0.3
14.372,0.3
14.374,-0.1
14.376,0.5
14.378,0.5
14.38,0.5
14.382,0.6
14.384,0.7
14.386000000000001,-0.2
14.388,-0.5
14.39,0.4
14.392,1.0
14.394,0.4
14.396,0.7
14.398,0.4
14.4,-0.2
14.402000000000001,-0.1
14.404,0.4
14.406,0.0
14.408,0.6
14.41,0.1
14.412,0.9
14.414,0.9
14.416,0.9
14.418000000000001,0.7
14.42,0.4
14.422,0.5
14.424,0.7
14.426,-0.7
14.428,-0.5
14.43,0.4
14.432,0.5
14.434000000000001,0.4
14.436,0.5
14.438,0.9
14.44,0.1
14.442,0.7
14.444,0.2
14.446,-0.1
14.448,0.3
14.450000000000001,0.7
14.452,0.9
14.454,1.2
14.456,0.4
14.458,0.1
14.46,0.0
14.462,0.2
14.464,0.5
14.466000000000001,-0.1
14.468,-0.5
14.47,0.2
14.472,0.6
14.474,0.7
14.476,0.3
14.478,0.3
14.48,0.2
14.482000000000001,0.2
14.484,0.1
14.486,-0.1
14.488,0.3
14.49,0.6
14.492,0.7
14.494,0.7
14.496,0.7
14.498000000000001,0.3
14.5,0.0
14.502,0.4
14.504,0.1
14.506,-0.4
14.508000000000001,0.1
14.51,-0.1
14.512,0.3
14.514000000000001,0.2
14.516,1.1
14.518,0.7
14.52,0.5
14.522,0.5
14.524000000000001,-0.2
14.526,-0.2
14.528,0.1
14.530000000000001,0.1
14.532,0.6
14.534,0.9
14.536,0.9
14.538,1.1
14.540000000000001,0.8
14.542,0.4
14.544,0.6
14.546000000000001,0.5
14.548,0.5
14.55,0.5
14.552,0.5
14.554,1.1
14.556000000000001,0.9
14.558,0.8
14.56,0.5
14.562000000000001,1.0
14.564,1.1
14.566,0.8
14.568,0.2
14.57,0.8
14.572000000000001,0.2
14.574,0.1
14.576,0.7
14.578000000000001,0.4
14.58,0.2
14.582,0.4
14.584,0.0
14.586,-0.4
14.588000000000001,-0.1
14.59,0.0
14.592,-0.2
14.594,0.5
14.596,-0.1
14.598,-0.1
14.6,-0.4
14.602,-0.4
14.604000000000001,-1.0
14.606,-0.7
14.608,-0.6
14.61,-0.2
14.612,-0.2
14.614,0.3
14.616,0.3
14.618,0.1
14.620000000000001,-0.6
14.622,0.5
14.624,-0.8
14.626,-1.1
14.628,-1.0
14.63,-0.8
14.632,-1.0
14.634,0.3
14.636000000000001,0.2
14.638,0.2
14.64,-0.4
14.642,-0.4
14.644,-1.1
14.646,-1.0
14.648,-1.0
14.65,-0.7
14.652000000000001,-0.1
14.654,0.3
14.656,-0.2
14.658,-1.1
14.66,-1.4
14.662,-1.4
14.664,-2.0
14.666,-2.0
14.668000000000001,-2.0
14.67,-1.4
14.672,-0.8
14.674,0.8
14.676,2.0
14.678,3.3
14.68,4.6
14.682,6.3
14.684000000000001,7.0
14.686,7.8
14.688,9.0
14.69,8.8
14.692,7.7
14.694,6.3
14.696,6.0
14.698,6.0
14.700000000000001,4.3
14.702,2.7
14.704,0.2
14.706,-2.5
14.708,-2.9
14.71,-3.2
14.712,-3.2
14.714,-2.7
14.716000000000001,-2.5
14.718,-2.7
14.72,-3.1
14.722,-2.9
14.724,-2.7
14.726,-2.3
14.728,-1.2
14.73,-0.7
14.732000000000001,-0.3
14.734,-0.2
14.736,0.1
14.738,-0.4
14.74,-0.5
14.742,-0.6
14.744,-1.1
14.746,-0.7
14.748000000000001,-0.5
14.75,0.0
14.752,0.1
14.754,0.2
14.756,0.3
14.758000000000001,-0.4
14.76,-0.4
14.762,-0.3
14.764000000000001,-0.6
14.766,0.1
14.768,0.4
14.77,0.4
14.772,0.4
14.774000000000001,-0.1
14.776,0.3
14.778,0.3
14.780000000000001,0.1
14.782,-0.1
14.784,0.1
14.786,-0.1
14.788,0.6
14.790000000000001,1.0
14.792,1.1
14.794,0.4
14.796000000000001,0.4
14.798,0.1
14.8,-0.2
14.802,-0.2
14.804,0.0
14.806000000000001,0.0
14.808,0.5
14.81,0.8
14.812000000000001,1.8
14.814,1.1
14.816,0.1
14.818,0.6
14.82,0.4
14.822000000000001,0.3
14.824,0.3
14.826,0.3
14.828000000000001,0.7
14.83,0.7
14.832,1.1
14.834,1.1
14.836,0.8
14.838000000000001,1.0
14.84,1.2
14.842,0.9
14.844000000000001,0.9
14.846,0.9
14.848,1.2
14.85,0.8
14.852,2.0
14.854000000000001,1.8
14.856,0.9
14.858,1.1
14.86,1.1
14.862,0.9
14.864,1.2
14.866,1.7
14.868,1.9
14.870000000000001,1.6
14.872,2.0
14.874,2.0
14.876,1.6
14.878,1.5
14.88,2.4
14.882,1.7
14.884,2.4
14.886000000000001,2.4
14.888,2.5
14.89,2.0
14.892,3.1
14.894,3.2
14.896,3.5
14.898,3.4
14.9,3.3
14.902000000000001,2.9
14.904,3.2
14.906,3.3
14.908,3.8
14.91,3.6
14.912,4.0
14.914,4.0
14.916,4.1
14.918000000000001,3.8
14.92,4.7
14.922,4.5
14.924,4.5
14.926,4.5
14.928,4.9
14.93,5.3
14.932,5.8
14.934000000000001,5.5
14.936,4.7
14.938,3.9
14.94,4.5
14.942,4.4
14.944,4.4
14.946,4.5
14.948,4.7
14.950000000000001,4.1
14.952,4.6
14.954,3.9
14.956,3.9
14.958,2.4
14.96,2.6
14.962,2.3
14.964,2.4
14.966000000000001,3.5
14.968,3.7
14.97,2.9
14.972,3.0
14.974,2.2
14.976,1.6
14.978,1.8
14.98,1.9
14.982000000000001,0.8
14.984,0.7
14.986,0.9
14.988,1.1
14.99,1.0
14.992,1.0
14.994,0.6
14.996,0.6
14.998000000000001,0.0
15.0,0.1
15.002,-0.1
15.004,0.3
15.006,0.6
15.008000000000001,0.5
15.01,0.2
15.012,0.8
15.014000000000001,0.5
15.016,0.1
15.018,-0.6
15.02,-0.6
15.022,-0.5
15.024000000000001,-0.8
15.026,-0.2
15.028,0.2
15.030000000000001,0.0
15.032,0.3
15.034,0.2
15.036,0.3
15.038,-0.3
15.040000000000001,-0.8
15.042,-1.0
15.044,-1.2
15.046000000000001,-0.5
15.048,-0.1
15.05,0.2
15.052,0.4
15.054,0.5
15.056000000000001,0.3
15.058,-0.3
15.06,-0.4
15.062000000000001,-0.5
15.064,-0.2
15.066,-0.5
15.068,-0.4
15.07,0.0
15.072000000000001,-0.2
15.074,-0.4
15.076,-0.3
15.078000000000001,-0.6
15.08,0.0
15.082,-0.2
15.084,-0.2
15.086,0.3
15.088000000000001,-0.1
15.09,-0.3
15.092,-0.3
15.094000000000001,-0.4
15.096,-0.4
15.098,-0.3
15.1,-0.9
15.102,-0.9
15.104000000000001,-0.9
15.106,-0.2
15.108,-0.1
15.11,0.2
15.112,-0.1
15.114,-0.3
15.116,-0.4
15.118,-0.3
15.120000000000001,-0.4
15.122,-0.3
15.124,0.1
15.126,0.5
15.128,-0.2
15.13,0.0
15.132,0.1
15.134,0.1
15.136000000000001,-0.2
15.138,-0.1
15.14,-0.2
15.142,-0.3
15.144,-0.4
15.146,0.5
15.148,0.3
15.15,0.6
15.152000000000001,0.9
15.154,0.9
15.156,0.4
15.158,0.6
15.16,0.1
15.162,-0.4
15.164,-0.6
15.166,0.4
15.168000000000001,0.3
15.17,0.5
15.172,-0.1
15.174,0.1
15.176,-0.3
15.178,-0.3
15.18,-0.6
15.182,-0.3
15.184000000000001,0.0
15.186,-0.1
15.188,-0.1
15.19,0.1
15.192,-0.5
15.194,-0.7
15.196,-0.7
15.198,0.0
15.200000000000001,-0.3
15.202,-0.1
15.204,-0.2
15.206,0.3
15.208,-0.2
15.21,0.3
15.212,0.1
15.214,-0.2
15.216000000000001,-0.6
15.218,-0.4
15.22,-0.9
15.222,-0.9
15.224,-0.6
15.226,0.2
15.228,0.1
15.23,0.5
15.232000000000001,0.2
15.234,-0.1
15.236,-0.4
15.238,-0.5
15.24,-1.0
15.242,-0.9
15.244,-0.3
15.246,-0.3
15.248000000000001,-0.3
15.25,0.4
15.252,0.4
15.254,-0.2
15.256,-0.5
15.258000000000001,-0.5
15.26,-0.3
15.262,-0.6
15.264000000000001,-0.9
15.266,-0.3
15.268,-0.7
15.27,0.8
15.272,0.3
15.274000000000001,0.4
15.276,0.3
15.278,0.3
15.280000000000001,-0.4
15.282,-0.5
15.284,-0.5
15.286,-0.2
15.288,-0.2
15.290000000000001,0.2
15.292,0.0
15.294,-0.1
15.296000000000001,-0.1
15.298,0.1
15.3,-0.3
15.302,-0.4
15.304,-0.1
15.306000000000001,-0.1
15.308,-0.2
15.31,0.2
15.312000000000001,0.3
15.314,0.2
15.316,0.0
15.318,-1.2
15.32,-1.0
15.322000000000001,-0.1
15.324,0.4
15.326,0.3
15.328000000000001,0.0
15.33,0.7
15.332,0.6
15.334,0.4
15.336,0.7
15.338000000000001,0.1
15.34,-0.7
15.342,-0.5
15.344000000000001,-0.4
15.346,0.4
15.348,1.2
15.35,1.9
15.352,1.5
15.354000000000001,0.5
15.356,0.4
15.358,0.1
15.36,-0.1
15.362,0.1
15.364,0.4
15.366,0.4
15.368,0.8
15.370000000000001,1.0
15.372,0.7
15.374,1.0
15.376,0.3
15.378,-0.1
15.38,-0.1
15.382,-0.1
15.384,-0.2
15.386000000000001,-0.2
15.388,0.1
15.39,0.1
15.392,-0.2
15.394,-0.2
15.396,-0.5
15.398,-1.0
15.4,-0.5
15.402000000000001,-0.3
15.404,-0.3
15.406,-0.7
15.408,-0.3
15.41,-0.2
15.412,-0.3
15.414,-0.6
15.416,-0.6
15.418000000000001,-0.9
15.42,-0.8
15.422,-0.4
15.424,0.0
15.426,-0.7
15.428,-0.4
15.43,-1.0
15.432,-0.8
15.434000000000001,-1.0
15.436,-0.7
15.438,-0.4
15.44,-0.3
15.442,-0.4
15.444,-0.4
15.446,-0.5
15.448,0.1
15.450000000000001,-0.2
15.452,-0.5
15.454,-0.5
15.456,0.1
15.458,-1.3
15.46,-1.9
15.462,-1.8
15.464,-1.7
15.466000000000001,-2.0
15.468,-1.2
15.47,-1.6
15.472,-1.6
15.474,-0.9
15.476,0.4
15.478,1.1
15.48,2.7
15.482000000000001,4.5
15.484,6.6
15.486,8.2
15.488,9.8
15.49,9.3
15.492,8.8
15.494,7.8
15.496,5.9
15.498000000000001,5.0
15.5,5.0
15.502,3.9
15.504,2.6
15.506,0.3
15.508000000000001,-1.4
15.51,-1.9
15.512,-2.4
15.514000000000001,-3.0
15.516,-3.4
15.518,-3.2
15.52,-3.0
15.522,-2.6
15.524000000000001,-2.1
15.526,-1.9
15.528,-0.7
15.530000000000001,-0.4
15.532,-0.6
15.534,-0.8
15.536,-0.6
15.538,-0.9
15.540000000000001,-0.9
15.542,-0.4
15.544,0.1
15.546000000000001,-0.5
15.548,0.0
15.55,0.0
15.552,0.0
15.554,-0.4
15.556000000000001,0.4
15.558,-0.5
15.56,-0.3
15.562000000000001,-0.3
15.564,-0.2
15.566,-0.2
15.568,0.1
15.57,-0.2
15.572000000000001,0.2
15.574,-0.2
15.576,-0.2
15.578000000000001,0.3
15.58,0.4
15.582,0.3
15.584,0.4
15.586,0.4
15.588000000000001,0.9
15.59,0.4
15.592,0.2
15.594000000000001,0.2
15.596,0.4
15.598,0.4
15.6,0.0
15.602,-0.2
15.604000000000001,-0.2
15.606,0.4
15.608,0.5
15.610000000000001,0.5
15.612,0.3
15.614,0.3
15.616,0.2
15.618,0.0
15.620000000000001,0.5
15.622,0.8
15.624,0.7
15.626,0.9
15.628,0.8
15.63,0.8
15.632,0.4
15.634,1.0
15.636000000000001,0.8
15.638,0.0
15.64,0.5
15.642,0.9
15.644,1.0
15.646,1.2
15.648,0.8
15.65,1.3
15.652000000000001,1.2
15.654,1.4
15.656,1.2
15.658,1.4
15.66,1.8
15.662,1.6
15.664,1.6
15.666,1.6
15.668000000000001,2.2
15.67,2.0
15.672,1.2
15.674,1.8
15.676,0.9
15.678,1.2
15.68,1.7
15.682,2.1
15.684000000000001,2.1
15.686,2.3
15.688,2.5
15.69,2.3
15.692,2.3
15.694,2.6
15.696,2.8
15.698,2.6
15.700000000000001,3.1
15.702,2.9
15.704,3.1
15.706,4.1
15.708,4.1
15.71,4.0
15.712,4.1
15.714,4.6
15.716000000000001,3.6
15.718,3.2
15.72,3.9
15.722,4.2
15.724,4.4
15.726,4.7
15.728,4.6
15.73,4.8
15.732000000000001,4.6
15.734,5.1
15.736,4.4
15.738,4.4
15.74,4.7
15.742,4.7
15.744,4.0
15.746,5.0
15.748000000000001,4.4
15.75,4.8
15.752,4.1
15.754,3.8
15.756,2.9
15.758000000000001,3.3
15.76,3.3
15.762,3.4
15.764000000000001,2.9
15.766,3.5
15.768,3.1
15.77,2.0
15.772,1.9
15.774000000000001,2.7
15.776,2.0
15.778,1.4
15.780000000000001,1.4
15.782,2.0
15.784,1.5
15.786,1.3
15.788,1.2
15.790000000000001,0.2
15.792,0.2
15.794,0.1
15.796000000000001,-0.1
15.798,-0.1
15.8,0.1
15.802,0.2
15.804,-0.4
15.806000000000001,0.1
15.808,0.1
15.81,-0.3
15.812000000000001,-1.0
15.814,-0.8
15.816,-1.2
15.818,-0.8
15.82,-1.0
15.822000000000001,-0.2
15.824,-0.2
15.826,-0.1
15.828000000000001,-0.2
15.83,-0.9
15.832,-1.2
15.834,-1.0
15.836,-1.0
15.838000000000001,-1.0
15.84,-0.9
15.842,-0.5
15.844000000000001,-0.2
15.846,-0.2
15.848,-1.0
15.85,-1.1
15.852,-0.2
15.854000000000001,-0.4
15.856,-1.2
15.858,-0.7
15.860000000000001,-0.6
15.862,-0.5
15.864,-0.4
15.866,-0.5
15.868,-0.3
15.870000000000001,-0.7
15.872,-0.6
15.874,-0.1
15.876,-0.8
15.878,-1.2
15.88,-0.9
15.882,-0.9
15.884,-0.8
15.886000000000001,-0.9
15.888,-0.7
15.89,-0.8
15.892,-0.8
15.894,-0.7
15.896,-0.8
15.898,-0.8
15.9,-0.2
15.902000000000001,-0.5
15.904,-0.5
15.906,0.0
15.908,-1.0
15.91,-1.6
15.912,-1.4
15.914,-0.9
15.916,-1.3
15.918000000000001,-1.0
15.92,-1.0
15.922,-0.8
15.924,-0.7
15.926,-0.6
15.928,-0.4
15.93,-0.8
15.932,-0.8
15.934000000000001,-0.8
15.936,-1.0
15.938,-0.7
15.94,-0.4
15.942,-0.2
15.944,0.2
15.946,-0.2
15.948,-0.4
15.950000000000001,-0.7
15.952,-0.4
15.954,-0.6
15.956,-0.7
15.958,-1.0
15.96,-0.3
15.962,-0.3
15.964,0.1
15.966000000000001,-0.4
15.968,0.1
15.97,-0.3
15.972,-0.2
15.974,-0.3
15.976,-0.6
15.978,-0.3
15.98,0.2
15.982000000000001,-0.3
15.984,0.1
15.986,0.2
15.988,0.0
15.99,-0.4
15.992,-0.4
15.994,-1.2
15.996,-1.1
15.998000000000001,-0.5
16.0,-0.3
16.002,-0.8
16.004,0.2
16.006,0.2
16.008,-0.1
16.01,-0.3
16.012,-0.3
16.014,-1.1
16.016000000000002,-1.2
16.018,-1.0
16.02,-1.0
16.022000000000002,-1.0
16.024,-0.1
16.026,-0.1
16.028,-0.5
16.03,-0.5
16.032,-0.2
16.034,-0.2
16.036,-0.6
16.038,-0.6
16.04,-0.4
16.042,-1.0
16.044,0.0
16.046,-0.3
16.048000000000002,-0.8
16.05,-0.3
16.052,-0.1
16.054000000000002,-0.5
16.056,-0.4
16.058,-0.5
16.06,-0.5
16.062,-1.3
16.064,-0.4
16.066,-0.4
16.068,-0.3
16.07,-0.7
16.072,0.1
16.074,-1.2
16.076,-1.1
16.078,-1.0
16.080000000000002,-0.7
16.082,-0.9
16.084,-0.2
16.086000000000002,-0.6
16.088,-0.4
16.09,-0.3
16.092,-0.5
16.094,-0.9
16.096,-0.6
16.098,-0.6
16.1,-0.5
16.102,-0.5
16.104,-0.4
16.106,-0.4
16.108,-0.8
16.11,-0.6
16.112000000000002,-0.6
16.114,-0.6
16.116,-0.6
16.118000000000002,-0.5
16.12,-0.2
16.122,-0.2
16.124,-0.4
16.126,-0.2
16.128,-0.3
16.13,-0.7
16.132,-0.7
16.134,-1.4
16.136,-1.5
16.138,-0.8
16.14,-0.3
16.142,0.1
16.144000000000002,0.5
16.146,0.2
16.148,0.3
16.15,0.2
16.152,-0.2
16.154,-0.8
16.156,0.0
16.158,0.0
16.16,-0.2
16.162,-0.1
16.164,0.2
16.166,0.8
16.168,0.7
16.17,0.2
16.172,0.1
16.174,0.0
16.176000000000002,0.0
16.178,0.6
16.18,-0.1
16.182,-0.2
16.184,-0.1
16.186,-0.2
16.188,-0.2
16.19,0.0
16.192,0.1
16.194,-0.1
16.196,-0.4
16.198,-0.7
16.2,-0.5
16.202,0.1
16.204,0.1
16.206,0.0
16.208000000000002,-0.2
16.21,-0.3
16.212,-0.4
16.214,-0.4
16.216,-0.6
16.218,-0.6
16.22,-0.8
16.222,-0.3
16.224,-1.1
16.226,-1.1
16.228,-1.5
16.23,-1.5
16.232,-1.4
16.234,-1.1
16.236,-0.6
16.238,-0.3
16.240000000000002,-0.7
16.242,-1.1
16.244,-1.1
16.246,-0.6
16.248,-1.0
16.25,-1.0
16.252,-1.4
16.254,-1.4
16.256,-1.4
16.258,-0.5
16.26,-0.5
16.262,-0.1
16.264,-0.1
16.266000000000002,-1.0
16.268,-1.3
16.27,-1.2
16.272000000000002,-1.5
16.274,-1.7
16.276,-2.0
16.278,-1.2
16.28,-1.4
16.282,-1.2
16.284,-1.5
16.286,-2.0
16.288,-2.6
16.29,-2.6
16.292,-3.0
16.294,-2.0
16.296,-0.9
16.298000000000002,0.2
16.3,1.9
16.302,4.5
16.304000000000002,5.6
16.306,6.6
16.308,7.5
16.31,8.0
16.312,7.3
16.314,6.5
16.316,6.0
16.318,6.0
16.32,5.9
16.322,6.6
16.324,3.5
16.326,0.8
16.328,-2.0
16.330000000000002,-3.7
16.332,-4.0
16.334,-4.0
16.336000000000002,-3.4
16.338,-2.9
16.34,-2.8
16.342,-2.2
16.344,-2.2
16.346,-2.3
16.348,-2.5
16.35,-2.2
16.352,-2.3
16.354,-2.8
16.356,-0.8
16.358,0.0
16.36,-0.2
16.362000000000002,-0.1
16.364,-0.1
16.366,-0.8
16.368000000000002,-1.5
16.37,-1.2
16.372,-1.1
16.374,-0.9
16.376,-0.4
16.378,0.1
16.38,0.5
16.382,0.7
16.384,-0.3
16.386,-0.5
16.388,-1.3
16.39,-1.0
16.392,-1.2
16.394000000000002,-0.1
16.396,0.1
16.398,0.8
16.4,-0.1
16.402,0.3
16.404,-0.2
16.406,-0.7
16.408,-0.6
16.41,0.2
16.412,0.0
16.414,0.2
16.416,0.0
16.418,0.4
16.42,0.0
16.422,0.7
16.424,0.3
16.426000000000002,-0.5
16.428,-0.7
16.43,-0.6
16.432,-0.6
16.434,-0.2
16.436,-0.2
16.438,0.0
16.44,0.4
16.442,0.8
16.444,0.7
16.446,0.3
16.448,-0.3
16.45,0.0
16.452,-0.7
16.454,-0.6
16.456,-0.6
16.458000000000002,-0.1
16.46,0.4
16.462,0.4
16.464,0.3
16.466,0.5
16.468,0.2
16.47,0.5
16.472,0.9
16.474,0.8
16.476,0.9
16.478,0.8
16.48,1.0
16.482,1.2
16.484,0.7
16.486,0.7
16.488,0.8
16.490000000000002,0.7
16.492,1.1
16.494,1.4
16.496,1.4
16.498,1.3
16.5,1.7
16.502,1.8
16.504,1.9
16.506,1.7
16.508,1.8
16.51,1.8
16.512,1.5
16.514,2.5
16.516000000000002,2.6
16.518,2.5
16.52,2.8
16.522000000000002,2.8
16.524,2.6
16.526,2.5
16.528,2.8
16.53,2.8
16.532,3.2
16.534,3.0
16.536,3.5
16.538,3.4
16.54,3.8
16.542,3.6
16.544,3.8
16.546,4.0
16.548000000000002,4.0
16.55,3.6
16.552,3.6
16.554000000000002,4.0
16.556,4.4
16.558,4.1
16.56,4.9
16.562,4.4
16.564,4.0
16.566,3.8
16.568,3.8
16.57,3.3
16.572,3.0
16.574,3.9
16.576,3.9
16.578,3.1
16.580000000000002,3.4
16.582,3.5
16.584,2.9
16.586000000000002,2.5
16.588,2.5
16.59,1.4
16.592,1.4
16.594,1.5
16.596,1.5
16.598,1.5
16.6,1.9
16.602,1.0
16.604,0.5
16.606,-0.1
16.608,0.3
16.61,-0.5
16.612000000000002,-0.1
16.614,0.0
16.616,0.1
16.618000000000002,-0.5
16.62,0.2
16.622,0.0
16.624,-0.3
16.626,-1.1
16.628,0.2
16.63,-0.5
16.632,-1.0
16.634,-1.0
16.636,-0.6
16.638,-1.9
16.64,-0.9
16.642,-1.2
16.644000000000002,-1.0
16.646,-0.9
16.648,-1.0
16.65,-1.1
16.652,-0.7
16.654,-0.7
16.656,-0.8
16.658,-0.7
16.66,-0.7
16.662,-1.5
16.664,-1.0
16.666,-1.8
16.668,-0.6
16.67,-1.6
16.672,-1.4
16.674,-1.2
16.676000000000002,-0.9
16.678,-1.4
16.68,-0.9
16.682,-0.7
16.684,-1.1
16.686,-1.2
16.688,-0.7
16.69,-1.5
16.692,-1.3
16.694,-0.7
16.696,-0.8
16.698,-0.6
16.7,-0.6
16.702,-1.3
16.704,-1.7
16.706,-1.5
16.708000000000002,-1.1
16.71,-0.9
16.712,-0.9
16.714,-1.1
16.716,-0.7
16.718,-0.7
16.72,-0.8
16.722,-0.6
16.724,-1.0
16.726,-0.8
16.728,-1.2
16.73,-1.5
16.732,-1.1
16.734,-0.7
16.736,-0.7
16.738,0.0
16.740000000000002,-0.8
16.742,-0.9
16.744,-0.8
16.746,-1.6
16.748,-1.0
16.75,-0.8
16.752,-1.1
16.754,0.0
16.756,0.1
16.758,0.1
16.76,0.4
16.762,0.4
16.764,-0.3
16.766000000000002,-0.2
16.768,-0.9
16.77,-1.0
16.772000000000002,-0.8
16.774,-0.6
16.776,-0.3
16.778,0.2
16.78,-0.3
16.782,-0.6
16.784,-0.6
16.786,-0.6
16.788,-1.0
16.79,-0.6
16.792,-0.6
16.794,-0.5
16.796,-0.5
16.798000000000002,-0.3
16.8,0.3
16.802,-0.2
16.804000000000002,-0.6
16.806,-0.4
16.808,-0.7
16.81,-0.7
16.812,-0.9
16.814,-0.8
16.816,-0.5
16.818,-0.1
16.82,-0.5
16.822,-0.5
16.824,-0.5
16.826,0.2
16.828,-0.4
16.830000000000002,-0.3
16.832,0.0
16.834,0.6
16.836000000000002,-0.2
16.838,-0.2
16.84,-0.7
16.842,-0.7
16.844,-0.7
16.846,-0.2
16.848,-0.7
16.85,-0.5
16.852,-0.5
16.854,-0.2
16.856,-0.2
16.858,0.8
16.86,0.5
16.862000000000002,0.1
16.864,-0.7
16.866,-0.8
16.868000000000002,-0.9
16.87,-0.6
16.872,-1.1
16.874,-0.6
16.876,-0.6
16.878,0.0
16.88,0.2
16.882,-0.2
16.884,-0.7
16.886,-0.3
16.888,-0.6
16.89,-0.7
16.892,-0.7
16.894000000000002,-0.6
16.896,-0.5
16.898,-0.2
16.9,-0.4
16.902,0.0
16.904,-0.6
16.906,-0.1
16.908,-0.4
16.91,-0.5
16.912,0.1
16.914,-0.2
16.916,-0.3
16.918,0.1
16.92,-0.3
16.922,-0.1
16.924,-0.4
16.926000000000002,0.2
16.928,-0.6
16.93,-0.1
16.932,0.4
16.934,0.3
16.936,-0.3
16.938,0.3
16.94,0.3
16.942,-0.1
16.944,-0.3
16.946,-0.1
16.948,-0.7
16.95,0.0
16.952,-0.3
16.954,0.7
16.956,0.0
16.958000000000002,0.8
16.96,0.6
16.962,0.1
16.964,-0.2
16.966,0.0
16.968,-0.2
16.97,0.2
16.972,0.6
16.974,0.6
16.976,0.2
16.978,0.8
16.98,0.1
16.982,-0.6
16.984,-0.6
16.986,-0.4
16.988,-0.7
16.990000000000002,-0.9
16.992,-0.5
16.994,-0.3
16.996,-0.6
16.998,0.0
17.0,-0.3
17.002,-0.5
17.004,-0.9
17.006,-1.0
17.008,-1.1
17.01,-0.3
17.012,-0.1
17.014,-0.4
17.016000000000002,-0.7
17.018,-0.4
17.02,-0.4
17.022000000000002,-0.6
17.024,-0.6
17.026,-0.7
17.028,-0.8
17.03,-0.5
17.032,-0.4
17.034,-1.0
17.036,-0.6
17.038,-1.2
17.04,-0.6
17.042,-0.7
17.044,-0.7
17.046,-1.2
17.048000000000002,-1.0
17.05,-0.9
17.052,-0.8
17.054000000000002,-0.8
17.056,-0.5
17.058,-0.6
17.06,-0.5
17.062,-0.6
17.064,-0.9
17.066,-0.9
17.068,-1.8
17.07,-1.6
17.072,-1.8
17.074,-2.2
17.076,-1.8
17.078,-1.5
17.080000000000002,-1.6
17.082,-0.6
17.084,0.0
17.086000000000002,1.2
17.088,2.1
17.09,3.4
17.092,4.5
17.094,6.7
17.096,8.7
17.098,8.9
17.1,7.5
17.102,6.5
17.104,5.3
17.106,4.2
17.108,4.0
17.11,3.0
17.112000000000002,1.9
17.114,0.0
17.116,-2.0
17.118000000000002,-3.3
17.12,-3.9
17.122,-4.1
17.124,-3.5
17.126,-4.1
17.128,-3.9
17.13,-3.9
17.132,-2.9
17.134,-2.4
17.136,-2.0
17.138,-1.6
17.14,-1.7
17.142,-1.7
17.144000000000002,-1.4
17.146,-1.6
17.148,-1.2
17.150000000000002,-0.4
17.152,-0.4
17.154,-0.6
17.156,-0.3
17.158,-0.2
17.16,-0.2
17.162,-0.4
17.164,-0.1
17.166,-1.2
17.168,-1.2
17.17,-0.6
17.172,-0.2
17.174,-0.6
17.176000000000002,0.0
17.178,0.4
17.18,-0.4
17.182,-0.3
17.184,0.0
17.186,-0.7
17.188,-0.7
17.19,0.0
17.192,0.0
17.194,-0.1
17.196,0.3
17.198,0.1
17.2,0.1
17.202,0.1
17.204,-0.1
17.206,-1.3
17.208000000000002,-0.4
17.21,-0.1
17.212,0.4
17.214,0.6
17.216,1.3
17.218,0.2
17.22,0.0
17.222,-0.1
17.224,0.6
17.226,0.1
17.228,0.1
17.23,0.3
17.232,0.5
17.234,0.3
17.236,0.7
17.238,0.8
17.240000000000002,0.8
17.242,0.9
17.244,1.1
17.246,-0.2
17.248,0.2
17.25,1.1
17.252,1.0
17.254,0.9
17.256,1.3
17.258,1.1
17.26,1.0
17.262,1.0
17.264,0.8
17.266000000000002,0.2
17.268,0.9
17.27,1.4
17.272000000000002,1.4
17.274,1.2
17.276,1.6
17.278,2.1
17.28,1.8
17.282,1.9
17.284,1.9
17.286,1.5
17.288,1.5
17.29,2.3
17.292,2.2
17.294,2.0
17.296,2.4
17.298000000000002,2.1
17.3,2.1
17.302,1.9
17.304000000000002,2.2
17.306,1.7
17.308,2.4
17.31,2.8
17.312,3.3
17.314,3.7
17.316,4.2
17.318,4.0
17.32,4.0
17.322,3.7
17.324,3.4
17.326,2.7
17.328,3.4
17.330000000000002,4.2
17.332,4.5
17.334,4.2
17.336000000000002,4.6
17.338,4.7
17.34,4.8
17.342,4.8
17.344,4.6
17.346,4.4
17.348,4.4
17.35,4.1
17.352,4.5
17.354,4.6
17.356,4.1
17.358,4.1
17.36,4.1
17.362000000000002,3.7
17.364,3.3
17.366,3.6
17.368000000000002,3.1
17.37,3.9
17.372,3.4
17.374,3.3
17.376,3.1
17.378,2.5
17.38,1.8
17.382,1.6
17.384,0.8
17.386,0.8
17.388,0.9
17.39,1.3
17.392,0.6
17.394000000000002,1.1
17.396,0.9
17.398,0.2
17.400000000000002,-0.2
17.402,0.2
17.404,-0.5
17.406,-0.3
17.408,-0.1
17.41,-0.3
17.412,-0.5
17.414,-0.2
17.416,-0.5
17.418,-0.4
17.42,-0.6
17.422,-0.5
17.424,-1.0
17.426000000000002,-0.8
17.428,-0.9
17.43,-1.4
17.432,-1.3
17.434,-0.6
17.436,-0.8
17.438,-1.3
17.44,-1.3
17.442,-1.0
17.444,-1.7
17.446,-1.6
17.448,-1.2
17.45,-1.2
17.452,-1.4
17.454,-0.6
17.456,-0.5
17.458000000000002,-0.9
17.46,-2.3
17.462,-1.7
17.464,-2.5
17.466,-2.3
17.468,-1.1
17.47,-1.1
17.472,-0.9
17.474,-0.3
17.476,-0.6
17.478,-1.0
17.48,-1.0
17.482,-1.0
17.484,-2.0
17.486,-2.5
17.488,-2.2
17.490000000000002,-1.5
17.492,-0.9
17.494,-0.4
17.496,-0.5
17.498,-0.5
17.5,-0.8
17.502,-1.0
17.504,-1.5
17.506,-1.3
17.508,-1.3
17.51,-1.1
17.512,-1.1
17.514,-0.5
17.516000000000002,-0.7
17.518,-0.6
17.52,-0.6
17.522000000000002,-0.4
17.524,-1.1
17.526,-0.6
17.528,-1.1
17.53,-0.9
17.532,-0.9
17.534,-0.8
17.536,-0.8
17.538,-0.8
17.54,-0.8
17.542,-0.7
17.544,-1.5
17.546,-1.0
17.548000000000002,-0.7
17.55,-0.6
17.552,-0.6
17.554000000000002,0.2
17.556,-0.2
17.558,-0.5
17.56,-0.5
17.562,-0.3
17.564,-0.8
17.566,-1.3
17.568,-0.8
17.57,-1.1
17.572,-0.7
17.574,-0.5
17.576,-0.5
17.578,-0.7
17.580000000000002,-0.5
17.582,-1.0
17.584,-1.5
17.586000000000002,-1.2
17.588,-1.0
17.59,-1.0
17.592,-0.6
17.594,-0.5
17.596,-0.7
17.598,-1.1
17.6,-0.7
17.602,-1.1
17.604,-1.1
17.606,-0.9
17.608,-1.1
17.61,-1.4
17.612000000000002,-1.0
17.614,-0.7
17.616,-0.7
17.618000000000002,-1.4
17.62,-1.1
17.622,-0.8
17.624,-0.8
17.626,-1.3
17.628,-1.6
17.63,-1.6
17.632,-0.9
17.634,-0.9
17.636,-1.2
17.638,-1.2
17.64,-1.2
17.642,-0.7
17.644000000000002,-1.0
17.646,-0.9
17.648,-1.1
17.650000000000002,-1.0
17.652,-1.0
17.654,-1.0
17.656,-0.9
17.658,-1.0
17.66,-1.2
17.662,-1.7
17.664,-1.5
17.666,-1.3
17.668,-0.9
17.67,-0.6
17.672,-0.1
17.674,-0.1
17.676000000000002,-0.4
17.678,-1.1
17.68,-1.1
17.682,-1.8
17.684,-2.1
17.686,-1.3
17.688,-0.9
17.69,-0.9
17.692,-1.0
17.694,-1.0
17.696,-0.8
17.698,-1.7
17.7,-1.1
17.702,-1.7
17.704,-1.7
17.706,-1.0
17.708000000000002,-0.8
17.71,-0.8
17.712,-1.0
17.714,-0.9
17.716,-0.9
17.718,-1.3
17.72,-1.0
17.722,-1.2
17.724,-1.0
17.726,-1.0
17.728,-0.4
17.73,-0.5
17.732,0.3
17.734,0.0
17.736,-0.6
17.738,-0.6
17.740000000000002,-0.5
17.742,-0.9
17.744,-0.6
17.746,-0.3
17.748,0.1
17.75,-0.1
17.752,0.0
17.754,-0.5
17.756,-0.3
17.758,-0.8
17.76,-0.6
17.762,-1.2
17.764,-0.6
17.766000000000002,0.1
17.768,-0.3
17.77,-0.5
17.772000000000002,0.1
17.774,-0.4
17.776,-1.0
17.778,-1.0
17.78,-1.3
17.782,-1.9
17.784,-1.7
17.786,-1.8
17.788,-1.4
17.79,-1.4
17.792,-0.5
17.794,-0.5
17.796,-1.0
17.798000000000002,-1.4
17.8,-1.1
17.802,-2.2
17.804000000000002,-2.1
17.806,-1.3
17.808,-1.1
17.81,-1.5
17.812,-1.1
17.814,-1.2
17.816,-0.9
17.818,-1.5
17.82,-1.7
17.822,-1.8
17.824,-1.3
17.826,-1.3
17.828,-0.8
17.830000000000002,-1.2
17.832,-0.6
17.834,-0.9
17.836000000000002,-1.2
17.838,-0.9
17.84,-1.2
17.842,-1.6
17.844,-1.6
17.846,-1.6
17.848,-1.1
17.85,-1.1
17.852,-1.1
17.854,-1.5
17.856,-2.5
17.858,-2.3
17.86,-2.5
17.862000000000002,-3.2
17.864,-2.8
17.866,-2.9
17.868000000000002,-2.4
17.87,-1.7
17.872,-0.7
17.874,1.0
17.876,1.8
17.878,2.3
17.88,3.8
17.882,5.3
17.884,7.3
17.886,8.1
17.888,7.8
17.89,7.6
17.892,6.0
17.894000000000002,4.9
17.896,5.2
17.898,4.4
17.900000000000002,2.0
17.902,-0.6
17.904,-2.8
17.906,-3.9
17.908,-3.8
17.91,-3.4
17.912,-3.4
17.914,-3.6
17.916,-3.4
17.918,-3.6
17.92,-4.0
17.922,-3.7
17.924,-3.1
17.926000000000002,-1.9
17.928,-2.0
17.93,-1.6
17.932,-1.4
17.934,-1.5
17.936,-1.2
17.938,-1.2
17.94,-1.7
17.942,-1.7
17.944,-1.5
17.946,-0.5
17.948,-0.4
17.95,-0.1
17.952,-0.9
17.954,-1.3
17.956,-1.3
17.958000000000002,-0.7
17.96,-1.6
17.962,-1.8
17.964,-1.3
17.966,-1.2
17.968,-1.0
17.97,-0.5
17.972,-0.7
17.974,-0.8
17.976,-0.1
17.978,0.0
17.98,-1.1
17.982,-1.1
17.984,-1.1
17.986,-0.3
17.988,-0.6
17.990000000000002,-0.2
17.992,0.1
17.994,-0.4
17.996,-0.4
17.998,-0.4
18.0,-1.0
18.002,-1.0
18.004,-0.7
18.006,-0.6
18.008,-0.4
18.01,0.2
18.012,-0.5
18.014,-0.5
18.016000000000002,-0.1
18.018,0.1
18.02,-1.1
18.022000000000002,-1.0
18.024,-0.3
18.026,-0.1
18.028,-0.6
18.03,0.2
18.032,0.3
18.034,0.6
18.036,-0.3
18.038,0.1
18.04,-0.2
18.042,0.4
18.044,0.3
18.046,0.0
18.048000000000002,0.0
18.05,0.5
18.052,0.6
18.054000000000002,0.6
18.056,0.5
18.058,0.7
18.06,0.0
18.062,0.1
18.064,-0.1
18.066,0.8
18.068,1.5
18.07,1.7
18.072,1.2
18.074,1.1
18.076,0.7
18.078,0.6
18.080000000000002,1.0
18.082,1.2
18.084,1.2
18.086000000000002,1.5
18.088,1.6
18.09,2.1
18.092,2.2
18.094,2.3
18.096,2.3
18.098,2.3
18.1,1.9
18.102,2.6
18.104,2.9
18.106,3.2
18.108,3.1
18.11,3.6
18.112000000000002,3.2
18.114,3.1
18.116,3.1
18.118000000000002,3.6
18.12,2.8
18.122,2.7
18.124,3.3
18.126,3.5
18.128,3.5
18.13,3.8
18.132,3.7
18.134,3.4
18.136,3.9
18.138,3.4
18.14,3.2
18.142,4.0
18.144000000000002,3.7
18.146,3.6
18.148,3.2
18.150000000000002,3.2
18.152,3.6
18.154,3.1
18.156,2.4
18.158,2.1
18.16,1.9
18.162,1.7
18.164,2.0
18.166,2.0
18.168,2.1
18.17,1.7
18.172,1.7
18.174,1.1
18.176000000000002,0.7
18.178,0.6
18.18,0.1
18.182,0.1
18.184,0.4
18.186,-0.3
18.188,-0.1
18.19,-0.4
18.192,-0.7
18.194,-0.7
18.196,-0.7
18.198,-1.3
18.2,-1.2
18.202,-1.2
18.204,-1.3
18.206,-1.3
18.208000000000002,-0.7
18.21,-0.7
18.212,-1.6
18.214,-2.2
18.216,-1.9
18.218,-2.0
18.22,-1.9
18.222,-1.5
18.224,-1.3
18.226,-1.6
18.228,-1.4
18.23,-1.1
18.232,-1.4
18.234,-1.6
18.236,-1.6
18.238,-2.3
18.240000000000002,-2.3
18.242,-1.6
18.244,-1.2
18.246,-1.3
18.248,-1.0
18.25,-1.3
18.252,-1.6
18.254,-1.7
18.256,-1.7
18.258,-2.2
18.26,-1.5
18.262,-1.7
18.264,-1.4
18.266000000000002,-1.8
18.268,-0.9
18.27,-1.6
18.272000000000002,-2.2
18.274,-2.2
18.276,-1.5
18.278,-1.8
18.28,-2.2
18.282,-1.8
18.284,-1.5
18.286,-2.0
18.288,-1.3
18.29,-1.3
18.292,-1.4
18.294,-1.6
18.296,-1.5
18.298000000000002,-2.2
18.3,-1.9
18.302,-1.6
18.304000000000002,-1.4
18.306,-1.7
18.308,-0.6
18.31,-1.2
18.312,-1.5
18.314,-1.4
18.316,-1.6
18.318,-2.1
18.32,-1.6
18.322,-1.5
18.324,-1.5
18.326,-1.9
18.328,-1.3
18.330000000000002,-1.3
18.332,-1.2
18.334,-1.4
18.336000000000002,-0.9
18.338,-1.9
18.34,-1.6
18.342,-1.8
18.344,-1.3
18.346,-1.6
18.348,-1.3
18.35,-1.5
18.352,-1.7
18.354,-1.5
18.356,-0.9
18.358,-2.0
18.36,-2.3
18.362000000000002,-1.5
18.364,-1.5
18.366,-1.6
18.368000000000002,-1.2
18.37,-1.3
18.372,-1.6
18.374,-1.9
18.376,-1.4
18.378,-2.2
18.38,-1.9
18.382,-1.6
18.384,-1.2
18.386,-1.1
18.388,-0.6
18.39,-0.9
18.392,-1.4
18.394000000000002,-1.7
18.396,-1.2
18.398,-1.6
18.400000000000002,-1.7
18.402,-2.0
18.404,-1.9
18.406,-1.7
18.408,-1.2
18.41,-1.1
18.412,-1.8
18.414,-2.0
18.416,-1.4
18.418,-1.9
18.42,-1.7
18.422,-1.5
18.424,-1.6
18.426000000000002,-1.5
18.428,-1.5
18.43,-1.9
18.432000000000002,-1.9
18.434,-1.7
18.436,-1.7
18.438,-2.2
18.44,-1.9
18.442,-1.8
18.444,-2.4
18.446,-1.8
18.448,-1.7
18.45,-1.3
18.452,-1.6
18.454,-1.6
18.456,-1.6
18.458000000000002,-1.6
18.46,-1.5
18.462,-1.5
18.464,-1.8
18.466,-1.8
18.468,-1.7
18.47,-1.5
18.472,-1.8
18.474,-2.0
18.476,-2.0
18.478,-1.9
18.48,-2.0
18.482,-1.9
18.484,-1.7
18.486,-1.4
18.488,-1.8
18.490000000000002,-1.4
18.492,-1.7
18.494,-1.3
18.496,-1.5
18.498,-1.8
18.5,-1.4
18.502,-1.0
18.504,-1.3
18.506,-1.6
18.508,-1.6
18.51,-1.2
18.512,-1.6
18.514,-1.6
18.516000000000002,-1.7
18.518,-2.0
18.52,-1.5
18.522000000000002,-1.1
18.524,-1.1
18.526,-0.9
18.528,-1.1
18.53,-1.2
18.532,-1.2
18.534,-0.5
18.536,-2.0
18.538,-1.5
18.54,-1.3
18.542,-0.7
18.544,-1.1
18.546,-0.5
18.548000000000002,0.0
18.55,-0.6
18.552,-0.3
18.554000000000002,-0.4
18.556,-2.0
18.558,-1.1
18.56,-0.8
18.562,-0.9
18.564,-0.9
18.566,-0.4
18.568,-0.8
18.57,-1.0
18.572,-1.2
18.574,-1.0
18.576,-1.6
18.578,-1.7
18.580000000000002,-1.5
18.582,-1.4
18.584,-1.7
18.586000000000002,-1.0
18.588,-1.7
18.59,-1.7
18.592,-1.8
18.594,-1.6
18.596,-1.8
18.598,-1.9
18.6,-2.2
18.602,-2.5
18.604,-2.1
18.606,-1.4
18.608,-2.0
18.61,-2.0
18.612000000000002,-2.6
18.614,-1.6
18.616,-1.6
18.618000000000002,-2.2
18.62,-2.2
18.622,-2.0
18.624,-1.8
18.626,-1.7
18.628,-2.7
18.63,-2.8
18.632,-2.2
18.634,-1.7
18.636,-2.0
18.638,-2.0
18.64,-1.3
18.642,-1.4
18.644000000000002,-2.2
18.646,-1.7
18.648,-2.0
18.650000000000002,-2.0
18.652,-2.5
18.654,-3.2
18.656,-2.9
18.658,-2.7
18.66,-2.8
18.662,-2.8
18.664,-3.0
18.666,-3.0
18.668,-2.7
18.67,-2.0
18.672,-2.0
18.674,-0.7
18.676000000000002,0.7
18.678,3.0
18.68,4.6
18.682000000000002,6.5
18.684,7.8
18.686,8.7
18.688,7.5
18.69,6.0
18.692,3.9
18.694,3.9
18.696,3.9
18.698,3.5
18.7,1.8
18.702,0.3
18.704,-2.3
18.706,-3.7
18.708000000000002,-4.0
18.71,-4.6
18.712,-5.1
18.714,-5.1
18.716,-5.7
18.718,-4.7
18.72,-3.8
18.722,-3.0
18.724,-1.8
18.726,-1.9
18.728,-2.2
18.73,-2.3
18.732,-2.1
18.734,-2.8
18.736,-2.8
18.738,-1.9
18.740000000000002,-1.6
18.742,-1.2
18.744,-1.2
18.746,-1.4
18.748,-0.5
18.75,-0.5
18.752,-1.6
18.754,-1.6
18.756,-2.0
18.758,-1.7
18.76,-1.7
18.762,-1.5
18.764,-1.7
18.766000000000002,-0.9
18.768,-1.1
18.77,-1.2
18.772000000000002,-1.4
18.774,-1.4
18.776,-1.8
18.778,-1.8
18.78,-1.4
18.782,-1.4
18.784,-0.4
18.786,-0.7
18.788,-0.8
18.79,-0.8
18.792,-0.8
18.794,-1.3
18.796,-1.5
18.798000000000002,-1.4
18.8,-0.7
18.802,-0.7
18.804000000000002,-0.3
18.806,-0.7
18.808,-0.8
18.81,-0.8
18.812,-1.4
18.814,-1.9
18.816,-1.8
18.818,-0.9
18.82,-1.1
18.822,-0.9
18.824,-0.7
18.826,-0.7
18.828,-0.6
18.830000000000002,-0.8
18.832,-0.8
18.834,-1.2
18.836000000000002,-0.6
18.838,-0.3
18.84,-0.2
18.842,-0.8
18.844,-0.2
18.846,0.2
18.848,0.3
18.85,-0.2
18.852,0.1
18.854,-0.4
18.856,0.0
18.858,0.1
18.86,0.5
18.862000000000002,-0.4
18.864,0.3
18.866,0.0
18.868000000000002,0.2
18.87,0.2
18.872,1.1
18.874,0.5
18.876,0.4
18.878,0.8
18.88,0.7
18.882,0.8
18.884,1.7
18.886,1.4
18.888,1.5
18.89,1.2
18.892,2.0
18.894000000000002,1.1
18.896,1.3
18.898,2.2
18.900000000000002,2.2
18.902,1.4
18.904,2.5
18.906,2.9
18.908,2.8
18.91,2.8
18.912,3.5
18.914,2.8
18.916,3.0
18.918,3.1
18.92,3.1
18.922,3.0
18.924,3.9
18.926000000000002,4.3
18.928,4.0
18.93,3.4
18.932000000000002,3.4
18.934,3.1
18.936,3.8
18.938,3.9
18.94,3.9
18.942,3.7
18.944,4.0
18.946,3.1
18.948,3.6
18.95,3.2
18.952,3.2
18.954,1.9
18.956,2.0
18.958000000000002,2.4
18.96,2.5
18.962,2.2
18.964,2.6
18.966,1.5
18.968,0.9
18.97,1.1
18.972,1.4
18.974,0.1
18.976,0.2
18.978,0.4
18.98,0.4
18.982,0.5
18.984,0.4
18.986,-0.4
18.988,-0.4
18.990000000000002,-0.5
18.992,-0.9
18.994,-1.4
18.996,-1.6
18.998,-0.7
19.0,-0.9
19.002,-0.7
19.004,-0.7
19.006,-1.1
19.008,-1.3
19.01,-1.1
19.012,-1.6
19.014,-2.2
19.016000000000002,-1.9
19.018,-1.5
19.02,-1.5
19.022000000000002,-1.1
19.024,-1.5
19.026,-1.1
19.028,-1.5
19.03,-1.6
19.032,-1.4
19.034,-1.4
19.036,-1.5
19.038,-1.7
19.04,-1.4
19.042,-1.1
19.044,-1.0
19.046,-1.8
19.048000000000002,-1.8
19.05,-2.2
19.052,-2.2
19.054000000000002,-1.9
19.056,-1.8
19.058,-1.7
19.06,-1.9
19.062,-1.3
19.064,-1.2
19.066,-2.0
19.068,-2.0
19.07,-2.1
19.072,-1.9
19.074,-1.6
19.076,-1.3
19.078,-1.2
19.080000000000002,-1.6
19.082,-1.3
19.084,-1.5
19.086000000000002,-1.2
19.088,-1.4
19.09,-0.7
19.092,-1.2
19.094,-1.7
19.096,-1.3
19.098,-1.2
19.1,-2.2
19.102,-2.4
19.104,-1.8
19.106,-1.2
19.108,-1.2
19.11,-1.4
